June 21, 2026   17:16:56
Square Wave Voltammetry
File: c:/users/i2blu/downloads/da_exp/outputs\swv_10hz_reduction_cond3_da0_aa20_ua0_3.bin
Data Source:  Experiment
Instrument Model:  CHI1040C
Header: 
Note: 

Init E (V) = 0.9
Final E (V) = 0
Incr E (V) = 0.004
Amplitude (V) = 0.025
Frequency (Hz) = 10
Quiet Time (sec) = 0.1
Sensitivity (A/V) = 1e-5

E2 Scan On
Sens 2 = 1e-005

E3 Scan On
Sens 3 = 1e-005

E4 Scan On
Sens 4 = 1e-005

E5 Scan On
Sens 5 = 1e-005

E6 Scan On
Sens 6 = 1e-005

E7 Scan On
Sens 7 = 1e-005

E8 Scan On
Sens 8 = 1e-005

Results:

Channel 1:
Difference:
Ep = 0.320V
ip = 1.683e-7A
Ap = 1.938e-8VA

Forward:

Reverse:
Ep = 0.320V
ip = -6.071e-8A
Ah = -3.792e-9VA

Channel 2:
Difference:
Ep = 0.328V
ip = 1.274e-7A
Ap = 1.485e-8VA

Forward:

Reverse:
Ep = 0.324V
ip = -6.201e-8A
Ah = -4.131e-9VA

Channel 3:
Difference:
Ep = 0.320V
ip = 1.655e-7A
Ap = 1.944e-8VA

Forward:

Reverse:
Ep = 0.320V
ip = -5.324e-8A
Ah = -3.365e-9VA

Channel 4:
Difference:
Ep = 0.328V
ip = 1.318e-7A
Ap = 1.547e-8VA

Forward:

Reverse:
Ep = 0.324V
ip = -5.492e-8A
Ah = -3.624e-9VA

Channel 5:
Difference:
Ep = 0.320V
ip = 1.666e-7A
Ap = 2.035e-8VA

Forward:

Reverse:
Ep = 0.312V
ip = -7.571e-8A
Ah = -5.601e-9VA

Channel 6:
Difference:
Ep = 0.320V
ip = 1.486e-7A
Ap = 1.754e-8VA

Forward:

Reverse:
Ep = 0.320V
ip = -7.872e-8A
Ah = -6.753e-9VA

Channel 7:
Difference:
Ep = 0.316V
ip = 1.680e-7A
Ap = 2.021e-8VA

Forward:

Reverse:
Ep = 0.312V
ip = -8.144e-8A
Ah = -6.248e-9VA

Channel 8:
Difference:
Ep = 0.320V
ip = 1.471e-7A
Ap = 1.656e-8VA

Forward:

Reverse:
Ep = 0.320V
ip = -7.551e-8A
Ah = -6.116e-9VA

Potential/V, i1d/A, i1f/A, i1r/A, i2d/A, i2f/A, i2r/A, i3d/A, i3f/A, i3r/A, i4d/A, i4f/A, i4r/A, i5d/A, i5f/A, i5r/A, i6d/A, i6f/A, i6r/A, i7d/A, i7f/A, i7r/A, i8d/A, i8f/A, i8r/A

0.896, 1.099e-5, -5.306e-6, -1.630e-5, 1.365e-5, -6.182e-6, -1.983e-5, 1.013e-5, -4.946e-6, -1.508e-5, 1.239e-5, -5.722e-6, -1.811e-5, 9.069e-6, -4.770e-6, -1.384e-5, 1.126e-5, -5.664e-6, -1.692e-5, 8.526e-6, -4.563e-6, -1.309e-5, 1.019e-5, -5.294e-6, -1.548e-5
0.892, 9.721e-6, -3.514e-6, -1.324e-5, 1.221e-5, -4.000e-6, -1.621e-5, 8.934e-6, -3.262e-6, -1.220e-5, 1.104e-5, -3.718e-6, -1.476e-5, 8.055e-6, -3.097e-6, -1.115e-5, 1.012e-5, -3.624e-6, -1.375e-5, 7.559e-6, -2.970e-6, -1.053e-5, 9.116e-6, -3.417e-6, -1.253e-5
0.888, 8.605e-6, -2.492e-6, -1.110e-5, 1.088e-5, -2.798e-6, -1.367e-5, 7.883e-6, -2.310e-6, -1.019e-5, 9.803e-6, -2.614e-6, -1.242e-5, 7.128e-6, -2.198e-6, -9.326e-6, 9.032e-6, -2.552e-6, -1.158e-5, 6.679e-6, -2.120e-6, -8.799e-6, 8.107e-6, -2.437e-6, -1.054e-5
0.884, 7.718e-6, -1.760e-6, -9.478e-6, 9.794e-6, -1.940e-6, -1.173e-5, 7.048e-6, -1.634e-6, -8.683e-6, 8.808e-6, -1.829e-6, -1.064e-5, 6.388e-6, -1.569e-6, -7.958e-6, 8.144e-6, -1.806e-6, -9.950e-6, 5.978e-6, -1.531e-6, -7.508e-6, 7.293e-6, -1.756e-6, -9.049e-6
0.880, 7.005e-6, -1.190e-6, -8.195e-6, 8.912e-6, -1.273e-6, -1.019e-5, 6.378e-6, -1.112e-6, -7.490e-6, 7.997e-6, -1.221e-6, -9.218e-6, 5.790e-6, -1.088e-6, -6.878e-6, 7.417e-6, -1.233e-6, -8.650e-6, 5.413e-6, -1.080e-6, -6.493e-6, 6.630e-6, -1.236e-6, -7.866e-6
0.876, 6.427e-6, -7.273e-7, -7.154e-6, 8.189e-6, -7.304e-7, -8.919e-6, 5.835e-6, -6.901e-7, -6.525e-6, 7.332e-6, -7.292e-7, -8.061e-6, 5.302e-6, -7.032e-7, -6.006e-6, 6.817e-6, -7.732e-7, -7.591e-6, 4.950e-6, -7.200e-7, -5.670e-6, 6.084e-6, -8.180e-7, -6.902e-6
0.872, 5.947e-6, -3.396e-7, -6.287e-6, 7.582e-6, -2.745e-7, -7.856e-6, 5.383e-6, -3.382e-7, -5.721e-6, 6.774e-6, -3.170e-7, -7.091e-6, 4.895e-6, -3.833e-7, -5.278e-6, 6.311e-6, -3.897e-7, -6.701e-6, 4.564e-6, -4.215e-7, -4.986e-6, 5.625e-6, -4.700e-7, -6.095e-6
0.868, 5.549e-6, -4.896e-9, -5.553e-6, 7.073e-6, 1.186e-7, -6.954e-6, 5.009e-6, -3.642e-8, -5.045e-6, 6.308e-6, 3.760e-8, -6.270e-6, 4.556e-6, -1.106e-7, -4.667e-6, 5.884e-6, -6.245e-8, -5.946e-6, 4.241e-6, -1.677e-7, -4.409e-6, 5.238e-6, -1.728e-7, -5.410e-6
0.864, 5.214e-6, 2.879e-7, -4.926e-6, 6.640e-6, 4.620e-7, -6.178e-6, 4.695e-6, 2.279e-7, -4.468e-6, 5.911e-6, 3.470e-7, -5.564e-6, 4.270e-6, 1.266e-7, -4.143e-6, 5.519e-6, 2.230e-7, -5.296e-6, 3.969e-6, 5.364e-8, -3.915e-6, 4.908e-6, 8.604e-8, -4.822e-6
0.860, 4.931e-6, 5.494e-7, -4.382e-6, 6.267e-6, 7.663e-7, -5.501e-6, 4.431e-6, 4.633e-7, -3.968e-6, 5.573e-6, 6.215e-7, -4.951e-6, 4.027e-6, 3.370e-7, -3.690e-6, 5.208e-6, 4.764e-7, -4.732e-6, 3.739e-6, 2.502e-7, -3.489e-6, 4.627e-6, 3.171e-7, -4.310e-6
0.856, 4.687e-6, 7.829e-7, -3.904e-6, 5.943e-6, 1.037e-6, -4.906e-6, 4.206e-6, 6.747e-7, -3.532e-6, 5.279e-6, 8.673e-7, -4.412e-6, 3.822e-6, 5.265e-7, -3.296e-6, 4.937e-6, 7.030e-7, -4.234e-6, 3.544e-6, 4.264e-7, -3.117e-6, 4.383e-6, 5.234e-7, -3.860e-6
0.852, 4.472e-6, 9.903e-7, -3.482e-6, 5.649e-6, 1.274e-6, -4.374e-6, 4.010e-6, 8.628e-7, -3.147e-6, 5.018e-6, 1.084e-6, -3.934e-6, 3.643e-6, 6.962e-7, -2.947e-6, 4.697e-6, 9.046e-7, -3.793e-6, 3.373e-6, 5.842e-7, -2.788e-6, 4.168e-6, 7.073e-7, -3.461e-6
0.848, 4.280e-6, 1.177e-6, -3.104e-6, 5.381e-6, 1.484e-6, -3.897e-6, 3.838e-6, 1.034e-6, -2.804e-6, 4.783e-6, 1.278e-6, -3.505e-6, 3.486e-6, 8.497e-7, -2.636e-6, 4.482e-6, 1.085e-6, -3.397e-6, 3.223e-6, 7.274e-7, -2.495e-6, 3.977e-6, 8.745e-7, -3.102e-6
0.844, 4.109e-6, 1.342e-6, -2.767e-6, 5.139e-6, 1.668e-6, -3.471e-6, 3.685e-6, 1.187e-6, -2.498e-6, 4.573e-6, 1.450e-6, -3.123e-6, 3.350e-6, 9.894e-7, -2.361e-6, 4.290e-6, 1.247e-6, -3.043e-6, 3.094e-6, 8.585e-7, -2.236e-6, 3.808e-6, 1.025e-6, -2.783e-6
0.840, 3.946e-6, 1.486e-6, -2.460e-6, 4.905e-6, 1.824e-6, -3.081e-6, 3.541e-6, 1.321e-6, -2.220e-6, 4.370e-6, 1.597e-6, -2.773e-6, 3.223e-6, 1.113e-6, -2.110e-6, 4.108e-6, 1.388e-6, -2.719e-6, 2.976e-6, 9.757e-7, -2.001e-6, 3.648e-6, 1.158e-6, -2.490e-6
0.836, 3.788e-6, 1.609e-6, -2.179e-6, 4.676e-6, 1.952e-6, -2.724e-6, 3.407e-6, 1.439e-6, -1.968e-6, 4.176e-6, 1.722e-6, -2.454e-6, 3.106e-6, 1.223e-6, -1.883e-6, 3.933e-6, 1.509e-6, -2.423e-6, 2.868e-6, 1.080e-6, -1.788e-6, 3.496e-6, 1.273e-6, -2.222e-6
0.832, 3.637e-6, 1.713e-6, -1.924e-6, 4.455e-6, 2.057e-6, -2.398e-6, 3.278e-6, 1.540e-6, -1.738e-6, 3.987e-6, 1.826e-6, -2.161e-6, 2.995e-6, 1.319e-6, -1.676e-6, 3.763e-6, 1.612e-6, -2.152e-6, 2.766e-6, 1.173e-6, -1.593e-6, 3.351e-6, 1.373e-6, -1.978e-6
0.828, 3.489e-6, 1.799e-6, -1.689e-6, 4.236e-6, 2.138e-6, -2.098e-6, 3.151e-6, 1.625e-6, -1.526e-6, 3.801e-6, 1.909e-6, -1.892e-6, 2.887e-6, 1.401e-6, -1.485e-6, 3.599e-6, 1.696e-6, -1.903e-6, 2.666e-6, 1.252e-6, -1.414e-6, 3.210e-6, 1.456e-6, -1.754e-6
0.824, 3.339e-6, 1.867e-6, -1.472e-6, 4.020e-6, 2.197e-6, -1.823e-6, 3.024e-6, 1.694e-6, -1.330e-6, 3.616e-6, 1.972e-6, -1.644e-6, 2.778e-6, 1.469e-6, -1.309e-6, 3.434e-6, 1.762e-6, -1.673e-6, 2.569e-6, 1.321e-6, -1.249e-6, 3.071e-6, 1.526e-6, -1.545e-6
0.820, 3.187e-6, 1.917e-6, -1.270e-6, 3.802e-6, 2.235e-6, -1.567e-6, 2.894e-6, 1.746e-6, -1.148e-6, 3.431e-6, 2.016e-6, -1.415e-6, 2.669e-6, 1.524e-6, -1.145e-6, 3.268e-6, 1.810e-6, -1.458e-6, 2.471e-6, 1.376e-6, -1.095e-6, 2.929e-6, 1.578e-6, -1.351e-6
0.816, 3.036e-6, 1.953e-6, -1.083e-6, 3.589e-6, 2.256e-6, -1.333e-6, 2.765e-6, 1.786e-6, -9.796e-7, 3.247e-6, 2.044e-6, -1.203e-6, 2.561e-6, 1.567e-6, -9.938e-7, 3.105e-6, 1.843e-6, -1.261e-6, 2.375e-6, 1.422e-6, -9.531e-7, 2.791e-6, 1.618e-6, -1.173e-6
0.812, 2.886e-6, 1.974e-6, -9.126e-7, 3.379e-6, 2.261e-6, -1.119e-6, 2.636e-6, 1.810e-6, -8.258e-7, 3.067e-6, 2.056e-6, -1.011e-6, 2.453e-6, 1.597e-6, -8.551e-7, 2.945e-6, 1.863e-6, -1.082e-6, 2.280e-6, 1.457e-6, -8.231e-7, 2.656e-6, 1.646e-6, -1.010e-6
0.808, 2.735e-6, 1.982e-6, -7.533e-7, 3.174e-6, 2.252e-6, -9.216e-7, 2.505e-6, 1.823e-6, -6.819e-7, 2.889e-6, 2.055e-6, -8.337e-7, 2.344e-6, 1.618e-6, -7.263e-7, 2.786e-6, 1.871e-6, -9.155e-7, 2.184e-6, 1.482e-6, -7.017e-7, 2.523e-6, 1.664e-6, -8.586e-7
0.804, 2.585e-6, 1.977e-6, -6.075e-7, 2.974e-6, 2.231e-6, -7.425e-7, 2.375e-6, 1.824e-6, -5.510e-7, 2.714e-6, 2.043e-6, -6.715e-7, 2.237e-6, 1.629e-6, -6.081e-7, 2.634e-6, 1.869e-6, -7.648e-7, 2.090e-6, 1.499e-6, -5.909e-7, 2.394e-6, 1.673e-6, -7.212e-7
0.800, 2.439e-6, 1.964e-6, -4.751e-7, 2.782e-6, 2.201e-6, -5.805e-7, 2.249e-6, 1.817e-6, -4.318e-7, 2.547e-6, 2.021e-6, -5.260e-7, 2.133e-6, 1.632e-6, -5.008e-7, 2.488e-6, 1.860e-6, -6.284e-7, 1.998e-6, 1.508e-6, -4.898e-7, 2.271e-6, 1.674e-6, -5.965e-7
0.796, 2.297e-6, 1.942e-6, -3.554e-7, 2.599e-6, 2.163e-6, -4.358e-7, 2.125e-6, 1.801e-6, -3.235e-7, 2.386e-6, 1.991e-6, -3.951e-7, 2.031e-6, 1.628e-6, -4.029e-7, 2.349e-6, 1.844e-6, -5.054e-7, 1.910e-6, 1.512e-6, -3.978e-7, 2.153e-6, 1.670e-6, -4.833e-7
0.792, 2.163e-6, 1.914e-6, -2.487e-7, 2.429e-6, 2.121e-6, -3.079e-7, 2.006e-6, 1.779e-6, -2.265e-7, 2.236e-6, 1.957e-6, -2.797e-7, 1.934e-6, 1.619e-6, -3.149e-7, 2.219e-6, 1.823e-6, -3.960e-7, 1.824e-6, 1.510e-6, -3.146e-7, 2.042e-6, 1.660e-6, -3.825e-7
0.788, 2.034e-6, 1.881e-6, -1.533e-7, 2.269e-6, 2.073e-6, -1.952e-7, 1.893e-6, 1.752e-6, -1.408e-7, 2.094e-6, 1.916e-6, -1.773e-7, 1.841e-6, 1.605e-6, -2.361e-7, 2.095e-6, 1.796e-6, -2.990e-7, 1.743e-6, 1.503e-6, -2.398e-7, 1.937e-6, 1.644e-6, -2.929e-7
0.784, 1.914e-6, 1.845e-6, -6.923e-8, 2.121e-6, 2.024e-6, -9.681e-8, 1.786e-6, 1.721e-6, -6.460e-8, 1.962e-6, 1.874e-6, -8.840e-8, 1.754e-6, 1.588e-6, -1.663e-7, 1.982e-6, 1.768e-6, -2.138e-7, 1.666e-6, 1.493e-6, -1.731e-7, 1.839e-6, 1.626e-6, -2.132e-7
0.780, 1.803e-6, 1.806e-6, 2.937e-9, 1.987e-6, 1.973e-6, -1.369e-8, 1.687e-6, 1.688e-6, 1.077e-9, 1.841e-6, 1.829e-6, -1.235e-8, 1.673e-6, 1.568e-6, -1.056e-7, 1.878e-6, 1.737e-6, -1.405e-7, 1.594e-6, 1.479e-6, -1.148e-7, 1.750e-6, 1.605e-6, -1.446e-7
0.776, 1.700e-6, 1.766e-6, 6.604e-8, 1.862e-6, 1.921e-6, 5.839e-8, 1.593e-6, 1.652e-6, 5.827e-8, 1.729e-6, 1.783e-6, 5.354e-8, 1.596e-6, 1.545e-6, -5.148e-8, 1.781e-6, 1.704e-6, -7.637e-8, 1.526e-6, 1.463e-6, -6.310e-8, 1.665e-6, 1.581e-6, -8.408e-8
0.772, 1.605e-6, 1.724e-6, 1.193e-7, 1.750e-6, 1.868e-6, 1.186e-7, 1.506e-6, 1.614e-6, 1.073e-7, 1.627e-6, 1.735e-6, 1.086e-7, 1.525e-6, 1.520e-6, -4.996e-9, 1.691e-6, 1.670e-6, -2.154e-8, 1.462e-6, 1.444e-6, -1.821e-8, 1.588e-6, 1.556e-6, -3.197e-8
0.768, 1.518e-6, 1.682e-6, 1.642e-7, 1.648e-6, 1.816e-6, 1.680e-7, 1.428e-6, 1.575e-6, 1.474e-7, 1.534e-6, 1.687e-6, 1.533e-7, 1.459e-6, 1.494e-6, 3.438e-8, 1.611e-6, 1.635e-6, 2.407e-8, 1.404e-6, 1.423e-6, 1.964e-8, 1.517e-6, 1.529e-6, 1.180e-8
0.764, 1.439e-6, 1.639e-6, 2.004e-7, 1.556e-6, 1.765e-6, 2.087e-7, 1.355e-6, 1.536e-6, 1.809e-7, 1.450e-6, 1.641e-6, 1.903e-7, 1.399e-6, 1.466e-6, 6.768e-8, 1.538e-6, 1.600e-6, 6.192e-8, 1.350e-6, 1.402e-6, 5.221e-8, 1.452e-6, 1.500e-6, 4.828e-8
0.760, 1.366e-6, 1.597e-6, 2.304e-7, 1.473e-6, 1.714e-6, 2.412e-7, 1.288e-6, 1.496e-6, 2.082e-7, 1.373e-6, 1.594e-6, 2.202e-7, 1.343e-6, 1.438e-6, 9.539e-8, 1.471e-6, 1.564e-6, 9.342e-8, 1.300e-6, 1.379e-6, 7.905e-8, 1.393e-6, 1.471e-6, 7.850e-8
0.756, 1.300e-6, 1.555e-6, 2.545e-7, 1.397e-6, 1.665e-6, 2.678e-7, 1.226e-6, 1.456e-6, 2.298e-7, 1.304e-6, 1.548e-6, 2.439e-7, 1.291e-6, 1.410e-6, 1.185e-7, 1.409e-6, 1.528e-6, 1.194e-7, 1.252e-6, 1.354e-6, 1.020e-7, 1.337e-6, 1.441e-6, 1.043e-7
0.752, 1.239e-6, 1.513e-6, 2.740e-7, 1.330e-6, 1.617e-6, 2.875e-7, 1.170e-6, 1.417e-6, 2.470e-7, 1.241e-6, 1.503e-6, 2.618e-7, 1.243e-6, 1.381e-6, 1.376e-7, 1.353e-6, 1.494e-6, 1.405e-7, 1.208e-6, 1.329e-6, 1.209e-7, 1.287e-6, 1.412e-6, 1.248e-7
0.748, 1.185e-6, 1.473e-6, 2.879e-7, 1.270e-6, 1.572e-6, 3.017e-7, 1.120e-6, 1.379e-6, 2.592e-7, 1.185e-6, 1.460e-6, 2.750e-7, 1.201e-6, 1.353e-6, 1.521e-7, 1.304e-6, 1.460e-6, 1.558e-7, 1.168e-6, 1.303e-6, 1.349e-7, 1.242e-6, 1.382e-6, 1.401e-7
0.744, 1.136e-6, 1.434e-6, 2.987e-7, 1.216e-6, 1.529e-6, 3.124e-7, 1.073e-6, 1.342e-6, 2.684e-7, 1.135e-6, 1.419e-6, 2.839e-7, 1.161e-6, 1.324e-6, 1.634e-7, 1.259e-6, 1.427e-6, 1.679e-7, 1.132e-6, 1.278e-6, 1.468e-7, 1.201e-6, 1.353e-6, 1.524e-7
0.740, 1.092e-6, 1.397e-6, 3.053e-7, 1.168e-6, 1.487e-6, 3.192e-7, 1.032e-6, 1.306e-6, 2.741e-7, 1.090e-6, 1.379e-6, 2.897e-7, 1.125e-6, 1.296e-6, 1.714e-7, 1.218e-6, 1.394e-6, 1.767e-7, 1.098e-6, 1.254e-6, 1.552e-7, 1.163e-6, 1.325e-6, 1.612e-7
0.736, 1.052e-6, 1.361e-6, 3.095e-7, 1.125e-6, 1.447e-6, 3.226e-7, 9.936e-7, 1.271e-6, 2.775e-7, 1.049e-6, 1.341e-6, 2.922e-7, 1.092e-6, 1.269e-6, 1.770e-7, 1.181e-6, 1.363e-6, 1.824e-7, 1.067e-6, 1.228e-6, 1.611e-7, 1.129e-6, 1.296e-6, 1.673e-7
0.732, 1.016e-6, 1.327e-6, 3.114e-7, 1.087e-6, 1.410e-6, 3.234e-7, 9.592e-7, 1.238e-6, 2.787e-7, 1.012e-6, 1.305e-6, 2.924e-7, 1.061e-6, 1.242e-6, 1.808e-7, 1.147e-6, 1.334e-6, 1.864e-7, 1.039e-6, 1.204e-6, 1.646e-7, 1.098e-6, 1.269e-6, 1.717e-7
0.728, 9.833e-7, 1.294e-6, 3.107e-7, 1.051e-6, 1.374e-6, 3.227e-7, 9.280e-7, 1.205e-6, 2.775e-7, 9.795e-7, 1.270e-6, 2.910e-7, 1.034e-6, 1.216e-6, 1.823e-7, 1.117e-6, 1.305e-6, 1.876e-7, 1.012e-6, 1.179e-6, 1.669e-7, 1.070e-6, 1.243e-6, 1.731e-7
0.724, 9.530e-7, 1.262e-6, 3.087e-7, 1.020e-6, 1.340e-6, 3.200e-7, 8.992e-7, 1.174e-6, 2.753e-7, 9.499e-7, 1.237e-6, 2.873e-7, 1.008e-6, 1.191e-6, 1.825e-7, 1.090e-6, 1.277e-6, 1.869e-7, 9.880e-7, 1.155e-6, 1.673e-7, 1.044e-6, 1.217e-6, 1.738e-7
0.720, 9.260e-7, 1.231e-6, 3.051e-7, 9.922e-7, 1.307e-6, 3.152e-7, 8.736e-7, 1.145e-6, 2.711e-7, 9.237e-7, 1.206e-6, 2.826e-7, 9.850e-7, 1.166e-6, 1.812e-7, 1.066e-6, 1.252e-6, 1.856e-7, 9.659e-7, 1.132e-6, 1.660e-7, 1.021e-6, 1.193e-6, 1.720e-7
0.716, 9.006e-7, 1.201e-6, 3.000e-7, 9.664e-7, 1.276e-6, 3.092e-7, 8.498e-7, 1.116e-6, 2.663e-7, 8.999e-7, 1.176e-6, 2.764e-7, 9.643e-7, 1.143e-6, 1.786e-7, 1.044e-6, 1.226e-6, 1.822e-7, 9.456e-7, 1.110e-6, 1.640e-7, 1.000e-6, 1.169e-6, 1.689e-7
0.712, 8.762e-7, 1.171e-6, 2.945e-7, 9.417e-7, 1.244e-6, 3.025e-7, 8.272e-7, 1.088e-6, 2.604e-7, 8.766e-7, 1.146e-6, 2.699e-7, 9.436e-7, 1.119e-6, 1.754e-7, 1.024e-6, 1.202e-6, 1.784e-7, 9.261e-7, 1.087e-6, 1.612e-7, 9.810e-7, 1.147e-6, 1.659e-7
0.708, 8.528e-7, 1.141e-6, 2.878e-7, 9.178e-7, 1.213e-6, 2.954e-7, 8.049e-7, 1.059e-6, 2.545e-7, 8.546e-7, 1.117e-6, 2.628e-7, 9.242e-7, 1.096e-6, 1.715e-7, 1.005e-6, 1.178e-6, 1.735e-7, 9.077e-7, 1.065e-6, 1.575e-7, 9.629e-7, 1.124e-6, 1.616e-7
0.704, 8.311e-7, 1.112e-6, 2.805e-7, 8.962e-7, 1.183e-6, 2.864e-7, 7.854e-7, 1.033e-6, 2.471e-7, 8.349e-7, 1.090e-6, 2.548e-7, 9.064e-7, 1.073e-6, 1.667e-7, 9.872e-7, 1.155e-6, 1.681e-7, 8.907e-7, 1.044e-6, 1.532e-7, 9.458e-7, 1.102e-6, 1.567e-7
0.700, 8.098e-7, 1.083e-6, 2.727e-7, 8.747e-7, 1.152e-6, 2.775e-7, 7.662e-7, 1.006e-6, 2.397e-7, 8.154e-7, 1.062e-6, 2.462e-7, 8.900e-7, 1.051e-6, 1.612e-7, 9.706e-7, 1.133e-6, 1.620e-7, 8.743e-7, 1.022e-6, 1.482e-7, 9.303e-7, 1.081e-6, 1.510e-7
0.696, 7.893e-7, 1.054e-6, 2.642e-7, 8.529e-7, 1.121e-6, 2.682e-7, 7.481e-7, 9.799e-7, 2.317e-7, 7.971e-7, 1.034e-6, 2.373e-7, 8.736e-7, 1.029e-6, 1.551e-7, 9.547e-7, 1.110e-6, 1.552e-7, 8.591e-7, 1.001e-6, 1.423e-7, 9.154e-7, 1.060e-6, 1.448e-7
0.692, 7.691e-7, 1.025e-6, 2.559e-7, 8.323e-7, 1.092e-6, 2.592e-7, 7.290e-7, 9.534e-7, 2.244e-7, 7.775e-7, 1.007e-6, 2.293e-7, 8.565e-7, 1.006e-6, 1.498e-7, 9.380e-7, 1.087e-6, 1.491e-7, 8.426e-7, 9.803e-7, 1.377e-7, 8.994e-7, 1.038e-6, 1.390e-7
0.688, 7.500e-7, 9.977e-7, 2.477e-7, 8.136e-7, 1.063e-6, 2.491e-7, 7.120e-7, 9.289e-7, 2.169e-7, 7.606e-7, 9.807e-7, 2.201e-7, 8.407e-7, 9.847e-7, 1.440e-7, 9.229e-7, 1.065e-6, 1.422e-7, 8.275e-7, 9.593e-7, 1.318e-7, 8.853e-7, 1.018e-6, 1.324e-7
0.684, 7.323e-7, 9.712e-7, 2.389e-7, 7.937e-7, 1.034e-6, 2.400e-7, 6.951e-7, 9.043e-7, 2.091e-7, 7.432e-7, 9.541e-7, 2.109e-7, 8.256e-7, 9.632e-7, 1.377e-7, 9.081e-7, 1.043e-6, 1.346e-7, 8.128e-7, 9.390e-7, 1.262e-7, 8.705e-7, 9.966e-7, 1.261e-7
0.680, 7.156e-7, 9.466e-7, 2.310e-7, 7.775e-7, 1.008e-6, 2.303e-7, 6.800e-7, 8.815e-7, 2.015e-7, 7.270e-7, 9.298e-7, 2.028e-7, 8.113e-7, 9.430e-7, 1.317e-7, 8.932e-7, 1.021e-6, 1.280e-7, 7.983e-7, 9.189e-7, 1.206e-7, 8.566e-7, 9.762e-7, 1.196e-7
0.676, 7.005e-7, 9.232e-7, 2.227e-7, 7.617e-7, 9.826e-7, 2.209e-7, 6.663e-7, 8.599e-7, 1.936e-7, 7.125e-7, 9.065e-7, 1.940e-7, 7.966e-7, 9.225e-7, 1.259e-7, 8.788e-7, 1.000e-6, 1.212e-7, 7.854e-7, 8.999e-7, 1.144e-7, 8.430e-7, 9.560e-7, 1.129e-7
0.672, 6.870e-7, 9.021e-7, 2.151e-7, 7.485e-7, 9.603e-7, 2.118e-7, 6.526e-7, 8.396e-7, 1.869e-7, 6.990e-7, 8.846e-7, 1.856e-7, 7.838e-7, 9.037e-7, 1.198e-7, 8.654e-7, 9.792e-7, 1.138e-7, 7.723e-7, 8.814e-7, 1.091e-7, 8.305e-7, 9.369e-7, 1.064e-7
0.668, 6.744e-7, 8.817e-7, 2.073e-7, 7.361e-7, 9.393e-7, 2.032e-7, 6.400e-7, 8.201e-7, 1.801e-7, 6.852e-7, 8.634e-7, 1.782e-7, 7.708e-7, 8.851e-7, 1.144e-7, 8.522e-7, 9.597e-7, 1.075e-7, 7.593e-7, 8.632e-7, 1.039e-7, 8.169e-7, 9.170e-7, 1.000e-7
0.664, 6.637e-7, 8.637e-7, 2.000e-7, 7.253e-7, 9.205e-7, 1.952e-7, 6.300e-7, 8.034e-7, 1.734e-7, 6.750e-7, 8.455e-7, 1.705e-7, 7.600e-7, 8.685e-7, 1.085e-7, 8.405e-7, 9.419e-7, 1.014e-7, 7.492e-7, 8.471e-7, 9.789e-8, 8.068e-7, 9.006e-7, 9.377e-8
0.660, 6.543e-7, 8.468e-7, 1.924e-7, 7.154e-7, 9.027e-7, 1.873e-7, 6.196e-7, 7.867e-7, 1.671e-7, 6.638e-7, 8.278e-7, 1.639e-7, 7.487e-7, 8.524e-7, 1.037e-7, 8.283e-7, 9.236e-7, 9.535e-8, 7.377e-7, 8.309e-7, 9.325e-8, 7.948e-7, 8.827e-7, 8.784e-8
0.656, 6.449e-7, 8.312e-7, 1.864e-7, 7.068e-7, 8.871e-7, 1.803e-7, 6.106e-7, 7.723e-7, 1.616e-7, 6.538e-7, 8.121e-7, 1.583e-7, 7.384e-7, 8.376e-7, 9.912e-8, 8.186e-7, 9.084e-7, 8.985e-8, 7.272e-7, 8.160e-7, 8.875e-8, 7.852e-7, 8.677e-7, 8.241e-8
0.652, 6.371e-7, 8.173e-7, 1.802e-7, 6.993e-7, 8.725e-7, 1.732e-7, 6.027e-7, 7.593e-7, 1.566e-7, 6.461e-7, 7.981e-7, 1.520e-7, 7.297e-7, 8.235e-7, 9.382e-8, 8.094e-7, 8.937e-7, 8.425e-8, 7.190e-7, 8.023e-7, 8.334e-8, 7.767e-7, 8.534e-7, 7.671e-8
0.648, 6.284e-7, 8.030e-7, 1.746e-7, 6.905e-7, 8.581e-7, 1.676e-7, 5.945e-7, 7.461e-7, 1.515e-7, 6.369e-7, 7.842e-7, 1.473e-7, 7.204e-7, 8.098e-7, 8.941e-8, 7.996e-7, 8.788e-7, 7.913e-8, 7.096e-7, 7.891e-7, 7.947e-8, 7.671e-7, 8.390e-7, 7.186e-8
0.644, 6.204e-7, 7.903e-7, 1.699e-7, 6.827e-7, 8.444e-7, 1.617e-7, 5.864e-7, 7.341e-7, 1.477e-7, 6.283e-7, 7.709e-7, 1.426e-7, 7.124e-7, 7.976e-7, 8.518e-8, 7.904e-7, 8.653e-7, 7.491e-8, 7.008e-7, 7.763e-7, 7.547e-8, 7.594e-7, 8.262e-7, 6.678e-8
0.640, 6.117e-7, 7.769e-7, 1.652e-7, 6.740e-7, 8.307e-7, 1.568e-7, 5.786e-7, 7.227e-7, 1.441e-7, 6.197e-7, 7.580e-7, 1.383e-7, 7.046e-7, 7.862e-7, 8.165e-8, 7.824e-7, 8.526e-7, 7.019e-8, 6.933e-7, 7.648e-7, 7.151e-8, 7.514e-7, 8.139e-7, 6.247e-8
0.636, 6.050e-7, 7.652e-7, 1.602e-7, 6.662e-7, 8.176e-7, 1.513e-7, 5.720e-7, 7.121e-7, 1.401e-7, 6.122e-7, 7.466e-7, 1.344e-7, 6.977e-7, 7.752e-7, 7.753e-8, 7.759e-7, 8.410e-7, 6.509e-8, 6.867e-7, 7.538e-7, 6.707e-8, 7.452e-7, 8.024e-7, 5.727e-8
0.632, 5.969e-7, 7.537e-7, 1.567e-7, 6.581e-7, 8.053e-7, 1.472e-7, 5.655e-7, 7.024e-7, 1.369e-7, 6.042e-7, 7.355e-7, 1.313e-7, 6.908e-7, 7.649e-7, 7.413e-8, 7.676e-7, 8.296e-7, 6.197e-8, 6.797e-7, 7.436e-7, 6.393e-8, 7.380e-7, 7.915e-7, 5.352e-8
0.628, 5.899e-7, 7.425e-7, 1.527e-7, 6.502e-7, 7.928e-7, 1.426e-7, 5.589e-7, 6.929e-7, 1.340e-7, 5.963e-7, 7.245e-7, 1.282e-7, 6.840e-7, 7.545e-7, 7.048e-8, 7.606e-7, 8.184e-7, 5.775e-8, 6.732e-7, 7.333e-7, 6.013e-8, 7.320e-7, 7.809e-7, 4.893e-8
0.624, 5.830e-7, 7.322e-7, 1.491e-7, 6.419e-7, 7.811e-7, 1.392e-7, 5.516e-7, 6.830e-7, 1.313e-7, 5.884e-7, 7.139e-7, 1.255e-7, 6.770e-7, 7.447e-7, 6.773e-8, 7.538e-7, 8.076e-7, 5.382e-8, 6.666e-7, 7.236e-7, 5.700e-8, 7.252e-7, 7.699e-7, 4.468e-8
0.620, 5.775e-7, 7.238e-7, 1.462e-7, 6.355e-7, 7.714e-7, 1.359e-7, 5.465e-7, 6.754e-7, 1.289e-7, 5.825e-7, 7.053e-7, 1.228e-7, 6.720e-7, 7.362e-7, 6.420e-8, 7.486e-7, 7.985e-7, 4.995e-8, 6.615e-7, 7.153e-7, 5.375e-8, 7.208e-7, 7.614e-7, 4.064e-8
0.616, 5.720e-7, 7.150e-7, 1.430e-7, 6.294e-7, 7.621e-7, 1.327e-7, 5.409e-7, 6.672e-7, 1.264e-7, 5.763e-7, 6.967e-7, 1.204e-7, 6.666e-7, 7.279e-7, 6.128e-8, 7.430e-7, 7.891e-7, 4.617e-8, 6.557e-7, 7.068e-7, 5.110e-8, 7.150e-7, 7.520e-7, 3.706e-8
0.612, 5.669e-7, 7.072e-7, 1.402e-7, 6.236e-7, 7.533e-7, 1.297e-7, 5.352e-7, 6.602e-7, 1.249e-7, 5.714e-7, 6.888e-7, 1.174e-7, 6.614e-7, 7.202e-7, 5.874e-8, 7.383e-7, 7.807e-7, 4.239e-8, 6.510e-7, 6.991e-7, 4.806e-8, 7.102e-7, 7.438e-7, 3.358e-8
0.608, 5.620e-7, 6.996e-7, 1.376e-7, 6.188e-7, 7.448e-7, 1.260e-7, 5.307e-7, 6.527e-7, 1.220e-7, 5.663e-7, 6.817e-7, 1.154e-7, 6.572e-7, 7.129e-7, 5.569e-8, 7.332e-7, 7.725e-7, 3.926e-8, 6.462e-7, 6.911e-7, 4.484e-8, 7.058e-7, 7.355e-7, 2.979e-8
0.604, 5.579e-7, 6.928e-7, 1.349e-7, 6.129e-7, 7.372e-7, 1.244e-7, 5.265e-7, 6.472e-7, 1.207e-7, 5.610e-7, 6.748e-7, 1.138e-7, 6.523e-7, 7.060e-7, 5.377e-8, 7.287e-7, 7.651e-7, 3.642e-8, 6.416e-7, 6.843e-7, 4.268e-8, 7.013e-7, 7.281e-7, 2.677e-8
0.600, 5.544e-7, 6.864e-7, 1.319e-7, 6.091e-7, 7.302e-7, 1.211e-7, 5.230e-7, 6.415e-7, 1.186e-7, 5.573e-7, 6.683e-7, 1.110e-7, 6.489e-7, 6.998e-7, 5.091e-8, 7.256e-7, 7.584e-7, 3.285e-8, 6.378e-7, 6.776e-7, 3.987e-8, 6.990e-7, 7.216e-7, 2.267e-8
0.596, 5.509e-7, 6.798e-7, 1.290e-7, 6.044e-7, 7.234e-7, 1.190e-7, 5.188e-7, 6.356e-7, 1.168e-7, 5.539e-7, 6.629e-7, 1.090e-7, 6.457e-7, 6.935e-7, 4.782e-8, 7.214e-7, 7.511e-7, 2.968e-8, 6.349e-7, 6.717e-7, 3.683e-8, 6.948e-7, 7.145e-7, 1.969e-8
0.592, 5.474e-7, 6.744e-7, 1.270e-7, 6.008e-7, 7.172e-7, 1.163e-7, 5.156e-7, 6.305e-7, 1.149e-7, 5.498e-7, 6.570e-7, 1.072e-7, 6.420e-7, 6.879e-7, 4.588e-8, 7.182e-7, 7.450e-7, 2.674e-8, 6.316e-7, 6.662e-7, 3.463e-8, 6.919e-7, 7.083e-7, 1.641e-8
0.588, 5.452e-7, 6.697e-7, 1.244e-7, 5.974e-7, 7.112e-7, 1.138e-7, 5.122e-7, 6.256e-7, 1.134e-7, 5.465e-7, 6.519e-7, 1.055e-7, 6.399e-7, 6.826e-7, 4.273e-8, 7.157e-7, 7.394e-7, 2.370e-8, 6.284e-7, 6.604e-7, 3.198e-8, 6.889e-7, 7.026e-7, 1.377e-8
0.584, 5.432e-7, 6.653e-7, 1.221e-7, 5.946e-7, 7.061e-7, 1.115e-7, 5.103e-7, 6.217e-7, 1.114e-7, 5.443e-7, 6.477e-7, 1.034e-7, 6.376e-7, 6.780e-7, 4.040e-8, 7.142e-7, 7.345e-7, 2.034e-8, 6.264e-7, 6.557e-7, 2.934e-8, 6.876e-7, 6.982e-7, 1.060e-8
0.580, 5.415e-7, 6.608e-7, 1.193e-7, 5.928e-7, 7.017e-7, 1.089e-7, 5.083e-7, 6.175e-7, 1.092e-7, 5.421e-7, 6.434e-7, 1.012e-7, 6.361e-7, 6.738e-7, 3.763e-8, 7.125e-7, 7.295e-7, 1.705e-8, 6.250e-7, 6.518e-7, 2.678e-8, 6.867e-7, 6.936e-7, 6.873e-9
0.576, 5.396e-7, 6.562e-7, 1.166e-7, 5.911e-7, 6.965e-7, 1.054e-7, 5.060e-7, 6.136e-7, 1.076e-7, 5.408e-7, 6.394e-7, 9.857e-8, 6.349e-7, 6.698e-7, 3.484e-8, 7.111e-7, 7.250e-7, 1.385e-8, 6.236e-7, 6.474e-7, 2.385e-8, 6.853e-7, 6.895e-7, 4.235e-9
0.572, 5.380e-7, 6.521e-7, 1.140e-7, 5.887e-7, 6.913e-7, 1.026e-7, 5.034e-7, 6.089e-7, 1.055e-7, 5.381e-7, 6.350e-7, 9.694e-8, 6.333e-7, 6.653e-7, 3.203e-8, 7.098e-7, 7.208e-7, 1.102e-8, 6.218e-7, 6.433e-7, 2.149e-8, 6.840e-7, 6.845e-7, 4.954e-10
0.568, 5.358e-7, 6.474e-7, 1.115e-7, 5.874e-7, 6.874e-7, 1.000e-7, 5.020e-7, 6.051e-7, 1.031e-7, 5.371e-7, 6.313e-7, 9.418e-8, 6.323e-7, 6.615e-7, 2.912e-8, 7.090e-7, 7.167e-7, 7.692e-9, 6.210e-7, 6.397e-7, 1.867e-8, 6.839e-7, 6.812e-7, -2.772e-9
0.564, 5.335e-7, 6.424e-7, 1.088e-7, 5.846e-7, 6.814e-7, 9.678e-8, 4.983e-7, 5.998e-7, 1.015e-7, 5.334e-7, 6.259e-7, 9.251e-8, 6.304e-7, 6.569e-7, 2.656e-8, 7.070e-7, 7.117e-7, 4.710e-9, 6.193e-7, 6.352e-7, 1.591e-8, 6.829e-7, 6.770e-7, -5.833e-9
0.560, 5.311e-7, 6.377e-7, 1.066e-7, 5.821e-7, 6.769e-7, 9.472e-8, 4.958e-7, 5.954e-7, 9.958e-8, 5.307e-7, 6.209e-7, 9.024e-8, 6.290e-7, 6.533e-7, 2.436e-8, 7.060e-7, 7.080e-7, 1.984e-9, 6.176e-7, 6.315e-7, 1.392e-8, 6.822e-7, 6.740e-7, -8.214e-9
0.556, 5.280e-7, 6.323e-7, 1.043e-7, 5.791e-7, 6.710e-7, 9.195e-8, 4.928e-7, 5.900e-7, 9.720e-8, 5.273e-7, 6.158e-7, 8.847e-8, 6.268e-7, 6.485e-7, 2.174e-8, 7.049e-7, 7.033e-7, -1.520e-9, 6.163e-7, 6.277e-7, 1.148e-8, 6.812e-7, 6.699e-7, -1.130e-8
0.552, 5.256e-7, 6.269e-7, 1.013e-7, 5.760e-7, 6.654e-7, 8.938e-8, 4.887e-7, 5.843e-7, 9.559e-8, 5.242e-7, 6.104e-7, 8.625e-8, 6.252e-7, 6.445e-7, 1.933e-8, 7.026e-7, 6.984e-7, -4.236e-9, 6.150e-7, 6.238e-7, 8.811e-9, 6.801e-7, 6.657e-7, -1.435e-8
0.548, 5.211e-7, 6.204e-7, 9.929e-8, 5.718e-7, 6.589e-7, 8.709e-8, 4.843e-7, 5.781e-7, 9.374e-8, 5.197e-7, 6.037e-7, 8.406e-8, 6.228e-7, 6.395e-7, 1.669e-8, 7.009e-7, 6.938e-7, -7.139e-9, 6.129e-7, 6.193e-7, 6.380e-9, 6.783e-7, 6.615e-7, -1.681e-8
0.544, 5.167e-7, 6.143e-7, 9.753e-8, 5.681e-7, 6.526e-7, 8.455e-8, 4.802e-7, 5.723e-7, 9.204e-8, 5.152e-7, 5.975e-7, 8.228e-8, 6.201e-7, 6.348e-7, 1.474e-8, 6.978e-7, 6.888e-7, -8.911e-9, 6.106e-7, 6.149e-7, 4.323e-9, 6.767e-7, 6.574e-7, -1.937e-8
0.540, 5.126e-7, 6.080e-7, 9.543e-8, 5.644e-7, 6.466e-7, 8.226e-8, 4.757e-7, 5.657e-7, 9.002e-8, 5.109e-7, 5.916e-7, 8.072e-8, 6.172e-7, 6.298e-7, 1.257e-8, 6.951e-7, 6.837e-7, -1.132e-8, 6.078e-7, 6.103e-7, 2.581e-9, 6.747e-7, 6.530e-7, -2.175e-8
0.536, 5.094e-7, 6.022e-7, 9.280e-8, 5.598e-7, 6.397e-7, 7.982e-8, 4.712e-7, 5.596e-7, 8.840e-8, 5.065e-7, 5.852e-7, 7.870e-8, 6.156e-7, 6.251e-7, 9.490e-9, 6.939e-7, 6.796e-7, -1.430e-8, 6.070e-7, 6.066e-7, -4.202e-10, 6.743e-7, 6.495e-7, -2.481e-8
0.532, 5.044e-7, 5.949e-7, 9.051e-8, 5.558e-7, 6.330e-7, 7.721e-8, 4.671e-7, 5.532e-7, 8.604e-8, 5.019e-7, 5.783e-7, 7.642e-8, 6.127e-7, 6.198e-7, 7.157e-9, 6.914e-7, 6.743e-7, -1.711e-8, 6.043e-7, 6.013e-7, -2.949e-9, 6.729e-7, 6.452e-7, -2.773e-8
0.528, 4.998e-7, 5.881e-7, 8.830e-8, 5.514e-7, 6.262e-7, 7.475e-8, 4.624e-7, 5.468e-7, 8.439e-8, 4.969e-7, 5.718e-7, 7.492e-8, 6.099e-7, 6.152e-7, 5.337e-9, 6.889e-7, 6.695e-7, -1.945e-8, 6.018e-7, 5.972e-7, -4.563e-9, 6.708e-7, 6.412e-7, -2.960e-8
0.524, 4.963e-7, 5.820e-7, 8.568e-8, 5.466e-7, 6.191e-7, 7.249e-8, 4.578e-7, 5.404e-7, 8.258e-8, 4.925e-7, 5.650e-7, 7.254e-8, 6.075e-7, 6.104e-7, 2.867e-9, 6.867e-7, 6.649e-7, -2.180e-8, 5.996e-7, 5.925e-7, -7.083e-9, 6.696e-7, 6.376e-7, -3.202e-8
0.520, 4.919e-7, 5.756e-7, 8.369e-8, 5.432e-7, 6.131e-7, 6.996e-8, 4.544e-7, 5.347e-7, 8.029e-8, 4.885e-7, 5.591e-7, 7.066e-8, 6.053e-7, 6.062e-7, 8.786e-10, 6.850e-7, 6.609e-7, -2.412e-8, 5.983e-7, 5.894e-7, -8.933e-9, 6.681e-7, 6.339e-7, -3.422e-8
0.516, 4.871e-7, 5.692e-7, 8.216e-8, 5.383e-7, 6.070e-7, 6.871e-8, 4.491e-7, 5.284e-7, 7.937e-8, 4.843e-7, 5.535e-7, 6.924e-8, 6.022e-7, 6.014e-7, -8.436e-10, 6.819e-7, 6.560e-7, -2.585e-8, 5.949e-7, 5.847e-7, -1.016e-8, 6.660e-7, 6.302e-7, -3.582e-8
0.512, 4.843e-7, 5.634e-7, 7.903e-8, 5.365e-7, 6.014e-7, 6.488e-8, 4.465e-7, 5.228e-7, 7.631e-8, 4.811e-7, 5.479e-7, 6.677e-8, 6.012e-7, 5.973e-7, -3.924e-9, 6.812e-7, 6.524e-7, -2.880e-8, 5.946e-7, 5.813e-7, -1.330e-8, 6.653e-7, 6.265e-7, -3.883e-8
0.508, 4.794e-7, 5.567e-7, 7.736e-8, 5.312e-7, 5.946e-7, 6.343e-8, 4.425e-7, 5.172e-7, 7.465e-8, 4.769e-7, 5.419e-7, 6.498e-8, 5.987e-7, 5.927e-7, -5.971e-9, 6.780e-7, 6.475e-7, -3.052e-8, 5.915e-7, 5.767e-7, -1.481e-8, 6.634e-7, 6.225e-7, -4.088e-8
0.504, 4.766e-7, 5.511e-7, 7.443e-8, 5.292e-7, 5.895e-7, 6.024e-8, 4.387e-7, 5.110e-7, 7.233e-8, 4.745e-7, 5.369e-7, 6.239e-8, 5.969e-7, 5.887e-7, -8.136e-9, 6.767e-7, 6.434e-7, -3.334e-8, 5.902e-7, 5.730e-7, -1.727e-8, 6.631e-7, 6.195e-7, -4.364e-8
0.500, 4.736e-7, 5.458e-7, 7.227e-8, 5.258e-7, 5.837e-7, 5.793e-8, 4.355e-7, 5.058e-7, 7.034e-8, 4.713e-7, 5.315e-7, 6.020e-8, 5.949e-7, 5.843e-7, -1.053e-8, 6.742e-7, 6.391e-7, -3.515e-8, 5.883e-7, 5.689e-7, -1.938e-8, 6.608e-7, 6.156e-7, -4.518e-8
0.496, 4.718e-7, 5.409e-7, 6.907e-8, 5.240e-7, 5.789e-7, 5.495e-8, 4.339e-7, 5.017e-7, 6.773e-8, 4.685e-7, 5.265e-7, 5.804e-8, 5.934e-7, 5.808e-7, -1.262e-8, 6.729e-7, 6.353e-7, -3.763e-8, 5.872e-7, 5.657e-7, -2.149e-8, 6.596e-7, 6.124e-7, -4.722e-8
0.492, 4.677e-7, 5.351e-7, 6.742e-8, 5.209e-7, 5.736e-7, 5.276e-8, 4.307e-7, 4.964e-7, 6.571e-8, 4.658e-7, 5.215e-7, 5.571e-8, 5.915e-7, 5.767e-7, -1.486e-8, 6.711e-7, 6.313e-7, -3.974e-8, 5.851e-7, 5.619e-7, -2.318e-8, 6.583e-7, 6.089e-7, -4.936e-8
0.488, 4.653e-7, 5.298e-7, 6.454e-8, 5.190e-7, 5.681e-7, 4.911e-8, 4.281e-7, 4.909e-7, 6.276e-8, 4.635e-7, 5.163e-7, 5.278e-8, 5.897e-7, 5.721e-7, -1.763e-8, 6.682e-7, 6.263e-7, -4.185e-8, 5.827e-7, 5.573e-7, -2.546e-8, 6.565e-7, 6.046e-7, -5.187e-8
0.484, 4.640e-7, 5.256e-7, 6.155e-8, 5.171e-7, 5.636e-7, 4.655e-8, 4.269e-7, 4.869e-7, 6.006e-8, 4.618e-7, 5.119e-7, 5.011e-8, 5.885e-7, 5.686e-7, -1.988e-8, 6.675e-7, 6.232e-7, -4.426e-8, 5.815e-7, 5.542e-7, -2.725e-8, 6.553e-7, 6.015e-7, -5.378e-8
0.480, 4.617e-7, 5.208e-7, 5.903e-8, 5.151e-7, 5.588e-7, 4.372e-8, 4.246e-7, 4.830e-7, 5.845e-8, 4.602e-7, 5.080e-7, 4.779e-8, 5.869e-7, 5.653e-7, -2.163e-8, 6.658e-7, 6.196e-7, -4.621e-8, 5.802e-7, 5.511e-7, -2.914e-8, 6.532e-7, 5.979e-7, -5.533e-8
0.476, 4.599e-7, 5.163e-7, 5.638e-8, 5.143e-7, 5.549e-7, 4.068e-8, 4.229e-7, 4.784e-7, 5.553e-8, 4.591e-7, 5.039e-7, 4.484e-8, 5.859e-7, 5.616e-7, -2.430e-8, 6.636e-7, 6.156e-7, -4.800e-8, 5.787e-7, 5.474e-7, -3.134e-8, 6.515e-7, 5.941e-7, -5.737e-8
0.472, 4.589e-7, 5.123e-7, 5.342e-8, 5.127e-7, 5.506e-7, 3.787e-8, 4.218e-7, 4.744e-7, 5.256e-8, 4.575e-7, 4.998e-7, 4.227e-8, 5.849e-7, 5.578e-7, -2.710e-8, 6.618e-7, 6.109e-7, -5.092e-8, 5.778e-7, 5.437e-7, -3.407e-8, 6.505e-7, 5.906e-7, -5.990e-8
0.468, 4.577e-7, 5.087e-7, 5.103e-8, 5.119e-7, 5.476e-7, 3.571e-8, 4.204e-7, 4.708e-7, 5.042e-8, 4.564e-7, 4.961e-7, 3.974e-8, 5.835e-7, 5.549e-7, -2.867e-8, 6.603e-7, 6.078e-7, -5.253e-8, 5.766e-7, 5.408e-7, -3.583e-8, 6.498e-7, 5.882e-7, -6.164e-8
0.464, 4.558e-7, 5.044e-7, 4.855e-8, 5.106e-7, 5.434e-7, 3.276e-8, 4.185e-7, 4.667e-7, 4.825e-8, 4.547e-7, 4.919e-7, 3.718e-8, 5.816e-7, 5.511e-7, -3.051e-8, 6.581e-7, 6.037e-7, -5.439e-8, 5.747e-7, 5.373e-7, -3.741e-8, 6.466e-7, 5.837e-7, -6.298e-8
0.460, 4.553e-7, 5.009e-7, 4.559e-8, 5.103e-7, 5.396e-7, 2.929e-8, 4.175e-7, 4.628e-7, 4.534e-8, 4.540e-7, 4.884e-7, 3.438e-8, 5.810e-7, 5.480e-7, -3.292e-8, 6.553e-7, 5.992e-7, -5.606e-8, 5.736e-7, 5.338e-7, -3.981e-8, 6.458e-7, 5.805e-7, -6.531e-8
0.456, 4.532e-7, 4.967e-7, 4.351e-8, 5.073e-7, 5.348e-7, 2.750e-8, 4.156e-7, 4.591e-7, 4.351e-8, 4.510e-7, 4.834e-7, 3.245e-8, 5.779e-7, 5.435e-7, -3.441e-8, 6.525e-7, 5.951e-7, -5.747e-8, 5.707e-7, 5.299e-7, -4.080e-8, 6.429e-7, 5.765e-7, -6.641e-8
0.452, 4.517e-7, 4.928e-7, 4.112e-8, 5.062e-7, 5.313e-7, 2.512e-8, 4.141e-7, 4.549e-7, 4.082e-8, 4.501e-7, 4.802e-7, 3.012e-8, 5.765e-7, 5.399e-7, -3.660e-8, 6.499e-7, 5.907e-7, -5.920e-8, 5.692e-7, 5.267e-7, -4.253e-8, 6.403e-7, 5.726e-7, -6.772e-8
0.448, 4.507e-7, 4.892e-7, 3.848e-8, 5.055e-7, 5.278e-7, 2.232e-8, 4.130e-7, 4.515e-7, 3.856e-8, 4.485e-7, 4.766e-7, 2.809e-8, 5.743e-7, 5.362e-7, -3.805e-8, 6.476e-7, 5.868e-7, -6.080e-8, 5.673e-7, 5.232e-7, -4.411e-8, 6.383e-7, 5.687e-7, -6.958e-8
0.444, 4.492e-7, 4.855e-7, 3.631e-8, 5.036e-7, 5.241e-7, 2.041e-8, 4.113e-7, 4.479e-7, 3.664e-8, 4.473e-7, 4.731e-7, 2.575e-8, 5.729e-7, 5.329e-7, -4.000e-8, 6.449e-7, 5.826e-7, -6.233e-8, 5.664e-7, 5.203e-7, -4.608e-8, 6.358e-7, 5.650e-7, -7.080e-8
0.440, 4.480e-7, 4.822e-7, 3.416e-8, 5.024e-7, 5.202e-7, 1.787e-8, 4.093e-7, 4.438e-7, 3.457e-8, 4.464e-7, 4.697e-7, 2.330e-8, 5.709e-7, 5.294e-7, -4.144e-8, 6.419e-7, 5.789e-7, -6.299e-8, 5.642e-7, 5.168e-7, -4.740e-8, 6.334e-7, 5.615e-7, -7.184e-8
0.436, 4.472e-7, 4.786e-7, 3.142e-8, 5.010e-7, 5.163e-7, 1.534e-8, 4.079e-7, 4.404e-7, 3.251e-8, 4.442e-7, 4.656e-7, 2.135e-8, 5.680e-7, 5.254e-7, -4.267e-8, 6.393e-7, 5.745e-7, -6.476e-8, 5.622e-7, 5.128e-7, -4.941e-8, 6.316e-7, 5.579e-7, -7.370e-8
0.432, 4.452e-7, 4.755e-7, 3.034e-8, 5.001e-7, 5.139e-7, 1.379e-8, 4.066e-7, 4.376e-7, 3.101e-8, 4.435e-7, 4.632e-7, 1.966e-8, 5.671e-7, 5.229e-7, -4.424e-8, 6.371e-7, 5.715e-7, -6.562e-8, 5.609e-7, 5.110e-7, -4.999e-8, 6.292e-7, 5.550e-7, -7.417e-8
0.428, 4.442e-7, 4.717e-7, 2.747e-8, 4.983e-7, 5.093e-7, 1.094e-8, 4.050e-7, 4.338e-7, 2.873e-8, 4.414e-7, 4.589e-7, 1.748e-8, 5.649e-7, 5.189e-7, -4.604e-8, 6.339e-7, 5.671e-7, -6.681e-8, 5.586e-7, 5.069e-7, -5.176e-8, 6.260e-7, 5.502e-7, -7.583e-8
0.424, 4.425e-7, 4.686e-7, 2.618e-8, 4.975e-7, 5.068e-7, 9.372e-9, 4.031e-7, 4.305e-7, 2.743e-8, 4.410e-7, 4.568e-7, 1.576e-8, 5.633e-7, 5.162e-7, -4.711e-8, 6.310e-7, 5.637e-7, -6.728e-8, 5.570e-7, 5.045e-7, -5.254e-8, 6.237e-7, 5.474e-7, -7.638e-8
0.420, 4.407e-7, 4.650e-7, 2.423e-8, 4.940e-7, 5.025e-7, 8.496e-9, 4.013e-7, 4.271e-7, 2.575e-8, 4.391e-7, 4.529e-7, 1.385e-8, 5.599e-7, 5.123e-7, -4.756e-8, 6.273e-7, 5.589e-7, -6.844e-8, 5.542e-7, 5.006e-7, -5.356e-8, 6.203e-7, 5.436e-7, -7.666e-8
0.416, 4.390e-7, 4.617e-7, 2.268e-8, 4.935e-7, 4.992e-7, 5.731e-9, 4.001e-7, 4.241e-7, 2.405e-8, 4.375e-7, 4.494e-7, 1.197e-8, 5.590e-7, 5.098e-7, -4.918e-8, 6.253e-7, 5.557e-7, -6.959e-8, 5.532e-7, 4.982e-7, -5.498e-8, 6.187e-7, 5.410e-7, -7.770e-8
0.412, 4.374e-7, 4.585e-7, 2.103e-8, 4.910e-7, 4.957e-7, 4.707e-9, 3.986e-7, 4.213e-7, 2.270e-8, 4.361e-7, 4.467e-7, 1.058e-8, 5.562e-7, 5.067e-7, -4.948e-8, 6.218e-7, 5.520e-7, -6.982e-8, 5.514e-7, 4.957e-7, -5.562e-8, 6.157e-7, 5.370e-7, -7.871e-8
0.408, 4.364e-7, 4.556e-7, 1.921e-8, 4.900e-7, 4.928e-7, 2.759e-9, 3.969e-7, 4.184e-7, 2.153e-8, 4.350e-7, 4.438e-7, 8.840e-9, 5.552e-7, 5.044e-7, -5.079e-8, 6.196e-7, 5.487e-7, -7.088e-8, 5.502e-7, 4.934e-7, -5.680e-8, 6.133e-7, 5.342e-7, -7.915e-8
0.404, 4.352e-7, 4.533e-7, 1.811e-8, 4.877e-7, 4.897e-7, 2.001e-9, 3.964e-7, 4.168e-7, 2.043e-8, 4.333e-7, 4.417e-7, 8.329e-9, 5.535e-7, 5.022e-7, -5.134e-8, 6.173e-7, 5.462e-7, -7.112e-8, 5.487e-7, 4.914e-7, -5.728e-8, 6.116e-7, 5.321e-7, -7.952e-8
0.400, 4.338e-7, 4.509e-7, 1.711e-8, 4.868e-7, 4.874e-7, 6.527e-10, 3.956e-7, 4.150e-7, 1.942e-8, 4.333e-7, 4.398e-7, 6.528e-9, 5.529e-7, 5.009e-7, -5.205e-8, 6.150e-7, 5.434e-7, -7.157e-8, 5.488e-7, 4.905e-7, -5.831e-8, 6.096e-7, 5.294e-7, -8.015e-8
0.396, 4.345e-7, 4.500e-7, 1.547e-8, 4.859e-7, 4.855e-7, -3.511e-10, 3.967e-7, 4.145e-7, 1.784e-8, 4.328e-7, 4.383e-7, 5.455e-9, 5.526e-7, 4.995e-7, -5.318e-8, 6.144e-7, 5.418e-7, -7.263e-8, 5.482e-7, 4.890e-7, -5.922e-8, 6.096e-7, 5.282e-7, -8.142e-8
0.392, 4.358e-7, 4.500e-7, 1.416e-8, 4.871e-7, 4.850e-7, -2.044e-9, 3.990e-7, 4.148e-7, 1.577e-8, 4.348e-7, 4.386e-7, 3.792e-9, 5.550e-7, 4.998e-7, -5.520e-8, 6.155e-7, 5.414e-7, -7.409e-8, 5.502e-7, 4.892e-7, -6.100e-8, 6.103e-7, 5.281e-7, -8.220e-8
0.388, 4.371e-7, 4.509e-7, 1.378e-8, 4.859e-7, 4.844e-7, -1.483e-9, 3.998e-7, 4.158e-7, 1.608e-8, 4.349e-7, 4.385e-7, 3.654e-9, 5.544e-7, 4.999e-7, -5.454e-8, 6.150e-7, 5.412e-7, -7.386e-8, 5.504e-7, 4.896e-7, -6.082e-8, 6.094e-7, 5.276e-7, -8.175e-8
0.384, 4.397e-7, 4.530e-7, 1.324e-8, 4.892e-7, 4.864e-7, -2.723e-9, 4.038e-7, 4.183e-7, 1.447e-8, 4.374e-7, 4.403e-7, 2.906e-9, 5.577e-7, 5.021e-7, -5.563e-8, 6.159e-7, 5.420e-7, -7.395e-8, 5.531e-7, 4.911e-7, -6.202e-8, 6.112e-7, 5.286e-7, -8.265e-8
0.380, 4.449e-7, 4.564e-7, 1.153e-8, 4.920e-7, 4.888e-7, -3.235e-9, 4.095e-7, 4.219e-7, 1.241e-8, 4.412e-7, 4.426e-7, 1.391e-9, 5.624e-7, 5.046e-7, -5.783e-8, 6.206e-7, 5.446e-7, -7.596e-8, 5.575e-7, 4.939e-7, -6.368e-8, 6.142e-7, 5.303e-7, -8.389e-8
0.376, 4.506e-7, 4.607e-7, 1.008e-8, 4.966e-7, 4.920e-7, -4.642e-9, 4.148e-7, 4.258e-7, 1.102e-8, 4.460e-7, 4.460e-7, -6.962e-12, 5.671e-7, 5.079e-7, -5.927e-8, 6.235e-7, 5.469e-7, -7.668e-8, 5.622e-7, 4.970e-7, -6.522e-8, 6.190e-7, 5.334e-7, -8.553e-8
0.372, 4.577e-7, 4.654e-7, 7.680e-9, 5.026e-7, 4.958e-7, -6.787e-9, 4.232e-7, 4.312e-7, 7.995e-9, 4.529e-7, 4.505e-7, -2.428e-9, 5.738e-7, 5.123e-7, -6.146e-8, 6.304e-7, 5.510e-7, -7.934e-8, 5.682e-7, 5.009e-7, -6.727e-8, 6.241e-7, 5.363e-7, -8.779e-8
0.368, 4.658e-7, 4.707e-7, 4.866e-9, 5.091e-7, 4.994e-7, -9.681e-9, 4.308e-7, 4.362e-7, 5.338e-9, 4.584e-7, 4.536e-7, -4.829e-9, 5.800e-7, 5.160e-7, -6.392e-8, 6.360e-7, 5.540e-7, -8.200e-8, 5.747e-7, 5.048e-7, -6.991e-8, 6.299e-7, 5.400e-7, -8.987e-8
0.364, 4.761e-7, 4.773e-7, 1.165e-9, 5.164e-7, 5.041e-7, -1.232e-8, 4.405e-7, 4.424e-7, 1.854e-9, 4.670e-7, 4.587e-7, -8.284e-9, 5.887e-7, 5.217e-7, -6.702e-8, 6.439e-7, 5.590e-7, -8.494e-8, 5.831e-7, 5.100e-7, -7.309e-8, 6.371e-7, 5.447e-7, -9.249e-8
0.360, 4.849e-7, 4.831e-7, -1.748e-9, 5.238e-7, 5.083e-7, -1.543e-8, 4.501e-7, 4.479e-7, -2.162e-9, 4.750e-7, 4.633e-7, -1.171e-8, 5.961e-7, 5.266e-7, -6.954e-8, 6.520e-7, 5.640e-7, -8.798e-8, 5.906e-7, 5.152e-7, -7.539e-8, 6.453e-7, 5.494e-7, -9.589e-8
0.356, 4.963e-7, 4.897e-7, -6.619e-9, 5.329e-7, 5.132e-7, -1.974e-8, 4.610e-7, 4.542e-7, -6.817e-9, 4.843e-7, 4.682e-7, -1.607e-8, 6.066e-7, 5.329e-7, -7.373e-8, 6.604e-7, 5.690e-7, -9.140e-8, 6.002e-7, 5.213e-7, -7.886e-8, 6.534e-7, 5.547e-7, -9.869e-8
0.352, 5.083e-7, 4.966e-7, -1.162e-8, 5.421e-7, 5.177e-7, -2.437e-8, 4.721e-7, 4.605e-7, -1.159e-8, 4.933e-7, 4.724e-7, -2.090e-8, 6.166e-7, 5.389e-7, -7.774e-8, 6.697e-7, 5.741e-7, -9.559e-8, 6.101e-7, 5.268e-7, -8.329e-8, 6.632e-7, 5.607e-7, -1.025e-7
0.348, 5.190e-7, 5.015e-7, -1.749e-8, 5.507e-7, 5.213e-7, -2.943e-8, 4.828e-7, 4.653e-7, -1.745e-8, 5.013e-7, 4.757e-7, -2.556e-8, 6.265e-7, 5.441e-7, -8.238e-8, 6.792e-7, 5.787e-7, -1.005e-7, 6.193e-7, 5.322e-7, -8.703e-8, 6.719e-7, 5.646e-7, -1.073e-7
0.344, 5.294e-7, 5.062e-7, -2.317e-8, 5.566e-7, 5.229e-7, -3.371e-8, 4.927e-7, 4.701e-7, -2.261e-8, 5.086e-7, 4.787e-7, -2.983e-8, 6.357e-7, 5.490e-7, -8.665e-8, 6.878e-7, 5.830e-7, -1.048e-7, 6.285e-7, 5.371e-7, -9.149e-8, 6.809e-7, 5.695e-7, -1.114e-7
0.340, 5.384e-7, 5.100e-7, -2.840e-8, 5.622e-7, 5.246e-7, -3.764e-8, 5.008e-7, 4.733e-7, -2.753e-8, 5.148e-7, 4.810e-7, -3.378e-8, 6.436e-7, 5.527e-7, -9.082e-8, 6.948e-7, 5.864e-7, -1.084e-7, 6.374e-7, 5.419e-7, -9.542e-8, 6.872e-7, 5.721e-7, -1.151e-7
0.336, 5.469e-7, 5.134e-7, -3.347e-8, 5.679e-7, 5.269e-7, -4.102e-8, 5.085e-7, 4.768e-7, -3.172e-8, 5.200e-7, 4.830e-7, -3.700e-8, 6.523e-7, 5.573e-7, -9.500e-8, 7.020e-7, 5.898e-7, -1.122e-7, 6.459e-7, 5.463e-7, -9.957e-8, 6.953e-7, 5.763e-7, -1.190e-7
0.332, 5.523e-7, 5.153e-7, -3.703e-8, 5.702e-7, 5.268e-7, -4.338e-8, 5.146e-7, 4.793e-7, -3.531e-8, 5.232e-7, 4.845e-7, -3.877e-8, 6.587e-7, 5.602e-7, -9.854e-8, 7.077e-7, 5.923e-7, -1.154e-7, 6.526e-7, 5.497e-7, -1.029e-7, 7.003e-7, 5.787e-7, -1.216e-7
0.328, 5.572e-7, 5.169e-7, -4.027e-8, 5.709e-7, 5.263e-7, -4.459e-8, 5.188e-7, 4.808e-7, -3.802e-8, 5.248e-7, 4.840e-7, -4.077e-8, 6.642e-7, 5.625e-7, -1.017e-7, 7.112e-7, 5.936e-7, -1.177e-7, 6.578e-7, 5.521e-7, -1.058e-7, 7.038e-7, 5.799e-7, -1.239e-7
0.324, 5.582e-7, 5.161e-7, -4.212e-8, 5.697e-7, 5.249e-7, -4.474e-8, 5.208e-7, 4.811e-7, -3.971e-8, 5.240e-7, 4.831e-7, -4.081e-8, 6.670e-7, 5.635e-7, -1.034e-7, 7.129e-7, 5.937e-7, -1.192e-7, 6.608e-7, 5.528e-7, -1.080e-7, 7.066e-7, 5.805e-7, -1.260e-7
0.320, 5.589e-7, 5.156e-7, -4.335e-8, 5.683e-7, 5.240e-7, -4.429e-8, 5.219e-7, 4.809e-7, -4.096e-8, 5.230e-7, 4.824e-7, -4.062e-8, 6.697e-7, 5.647e-7, -1.050e-7, 7.142e-7, 5.938e-7, -1.204e-7, 6.641e-7, 5.543e-7, -1.098e-7, 7.073e-7, 5.802e-7, -1.272e-7
0.316, 5.571e-7, 5.139e-7, -4.320e-8, 5.632e-7, 5.210e-7, -4.221e-8, 5.204e-7, 4.799e-7, -4.046e-8, 5.196e-7, 4.806e-7, -3.905e-8, 6.697e-7, 5.641e-7, -1.055e-7, 7.134e-7, 5.931e-7, -1.203e-7, 6.641e-7, 5.536e-7, -1.105e-7, 7.059e-7, 5.790e-7, -1.269e-7
0.312, 5.541e-7, 5.117e-7, -4.242e-8, 5.579e-7, 5.174e-7, -4.047e-8, 5.185e-7, 4.781e-7, -4.039e-8, 5.153e-7, 4.779e-7, -3.745e-8, 6.677e-7, 5.620e-7, -1.057e-7, 7.115e-7, 5.912e-7, -1.203e-7, 6.632e-7, 5.522e-7, -1.110e-7, 7.045e-7, 5.774e-7, -1.271e-7
0.308, 5.497e-7, 5.091e-7, -4.061e-8, 5.525e-7, 5.150e-7, -3.743e-8, 5.148e-7, 4.763e-7, -3.858e-8, 5.116e-7, 4.760e-7, -3.560e-8, 6.660e-7, 5.611e-7, -1.050e-7, 7.085e-7, 5.894e-7, -1.192e-7, 6.614e-7, 5.513e-7, -1.101e-7, 7.009e-7, 5.750e-7, -1.259e-7
0.304, 5.430e-7, 5.054e-7, -3.756e-8, 5.454e-7, 5.110e-7, -3.442e-8, 5.099e-7, 4.735e-7, -3.642e-8, 5.053e-7, 4.725e-7, -3.280e-8, 6.616e-7, 5.586e-7, -1.031e-7, 7.033e-7, 5.864e-7, -1.170e-7, 6.568e-7, 5.483e-7, -1.085e-7, 6.955e-7, 5.718e-7, -1.237e-7
0.300, 5.373e-7, 5.021e-7, -3.527e-8, 5.390e-7, 5.073e-7, -3.167e-8, 5.044e-7, 4.699e-7, -3.448e-8, 5.001e-7, 4.694e-7, -3.061e-8, 6.575e-7, 5.559e-7, -1.017e-7, 6.987e-7, 5.832e-7, -1.156e-7, 6.525e-7, 5.452e-7, -1.072e-7, 6.905e-7, 5.681e-7, -1.224e-7
0.296, 5.310e-7, 4.983e-7, -3.270e-8, 5.324e-7, 5.039e-7, -2.858e-8, 4.990e-7, 4.670e-7, -3.202e-8, 4.946e-7, 4.661e-7, -2.848e-8, 6.519e-7, 5.524e-7, -9.953e-8, 6.929e-7, 5.797e-7, -1.132e-7, 6.474e-7, 5.422e-7, -1.053e-7, 6.838e-7, 5.643e-7, -1.195e-7
0.292, 5.228e-7, 4.940e-7, -2.876e-8, 5.255e-7, 5.001e-7, -2.541e-8, 4.916e-7, 4.630e-7, -2.862e-8, 4.874e-7, 4.624e-7, -2.497e-8, 6.452e-7, 5.488e-7, -9.644e-8, 6.858e-7, 5.759e-7, -1.099e-7, 6.405e-7, 5.380e-7, -1.025e-7, 6.766e-7, 5.604e-7, -1.162e-7
0.288, 5.149e-7, 4.889e-7, -2.607e-8, 5.179e-7, 4.952e-7, -2.266e-8, 4.841e-7, 4.580e-7, -2.612e-8, 4.812e-7, 4.580e-7, -2.320e-8, 6.372e-7, 5.432e-7, -9.396e-8, 6.786e-7, 5.707e-7, -1.079e-7, 6.332e-7, 5.329e-7, -1.003e-7, 6.688e-7, 5.548e-7, -1.140e-7
0.284, 5.065e-7, 4.840e-7, -2.254e-8, 5.112e-7, 4.915e-7, -1.968e-8, 4.778e-7, 4.538e-7, -2.400e-8, 4.748e-7, 4.541e-7, -2.068e-8, 6.303e-7, 5.390e-7, -9.133e-8, 6.717e-7, 5.663e-7, -1.054e-7, 6.257e-7, 5.287e-7, -9.708e-8, 6.610e-7, 5.499e-7, -1.111e-7
0.280, 4.979e-7, 4.789e-7, -1.902e-8, 5.039e-7, 4.872e-7, -1.675e-8, 4.691e-7, 4.486e-7, -2.053e-8, 4.678e-7, 4.501e-7, -1.776e-8, 6.213e-7, 5.338e-7, -8.750e-8, 6.636e-7, 5.613e-7, -1.023e-7, 6.175e-7, 5.236e-7, -9.392e-8, 6.519e-7, 5.446e-7, -1.073e-7
0.276, 4.904e-7, 4.741e-7, -1.627e-8, 4.985e-7, 4.833e-7, -1.525e-8, 4.623e-7, 4.438e-7, -1.852e-8, 4.624e-7, 4.465e-7, -1.591e-8, 6.143e-7, 5.290e-7, -8.535e-8, 6.561e-7, 5.564e-7, -9.976e-8, 6.096e-7, 5.183e-7, -9.129e-8, 6.440e-7, 5.391e-7, -1.049e-7
0.272, 4.828e-7, 4.689e-7, -1.388e-8, 4.927e-7, 4.792e-7, -1.343e-8, 4.547e-7, 4.384e-7, -1.624e-8, 4.563e-7, 4.414e-7, -1.484e-8, 6.059e-7, 5.235e-7, -8.244e-8, 6.485e-7, 5.510e-7, -9.754e-8, 6.015e-7, 5.133e-7, -8.826e-8, 6.366e-7, 5.341e-7, -1.026e-7
0.268, 4.747e-7, 4.637e-7, -1.100e-8, 4.863e-7, 4.751e-7, -1.121e-8, 4.480e-7, 4.336e-7, -1.439e-8, 4.499e-7, 4.369e-7, -1.298e-8, 5.978e-7, 5.180e-7, -7.977e-8, 6.409e-7, 5.459e-7, -9.496e-8, 5.925e-7, 5.075e-7, -8.507e-8, 6.279e-7, 5.285e-7, -9.939e-8
0.264, 4.660e-7, 4.578e-7, -8.243e-9, 4.788e-7, 4.697e-7, -9.140e-9, 4.384e-7, 4.275e-7, -1.098e-8, 4.416e-7, 4.314e-7, -1.021e-8, 5.882e-7, 5.118e-7, -7.640e-8, 6.320e-7, 5.401e-7, -9.196e-8, 5.832e-7, 5.010e-7, -8.221e-8, 6.192e-7, 5.231e-7, -9.609e-8
0.260, 4.589e-7, 4.529e-7, -5.960e-9, 4.732e-7, 4.659e-7, -7.289e-9, 4.309e-7, 4.218e-7, -9.100e-9, 4.354e-7, 4.271e-7, -8.323e-9, 5.800e-7, 5.061e-7, -7.396e-8, 6.254e-7, 5.352e-7, -9.025e-8, 5.751e-7, 4.959e-7, -7.915e-8, 6.116e-7, 5.175e-7, -9.407e-8
0.256, 4.510e-7, 4.476e-7, -3.470e-9, 4.674e-7, 4.619e-7, -5.439e-9, 4.237e-7, 4.167e-7, -7.072e-9, 4.286e-7, 4.219e-7, -6.748e-9, 5.714e-7, 5.001e-7, -7.133e-8, 6.172e-7, 5.296e-7, -8.765e-8, 5.666e-7, 4.902e-7, -7.645e-8, 6.029e-7, 5.119e-7, -9.102e-8
0.252, 4.433e-7, 4.417e-7, -1.640e-9, 4.617e-7, 4.574e-7, -4.347e-9, 4.159e-7, 4.109e-7, -4.996e-9, 4.219e-7, 4.167e-7, -5.174e-9, 5.639e-7, 4.953e-7, -6.864e-8, 6.098e-7, 5.246e-7, -8.524e-8, 5.584e-7, 4.845e-7, -7.390e-8, 5.958e-7, 5.069e-7, -8.889e-8
0.248, 4.365e-7, 4.365e-7, 4.317e-11, 4.567e-7, 4.532e-7, -3.501e-9, 4.089e-7, 4.052e-7, -3.746e-9, 4.154e-7, 4.115e-7, -3.934e-9, 5.555e-7, 4.887e-7, -6.680e-8, 6.020e-7, 5.187e-7, -8.328e-8, 5.509e-7, 4.790e-7, -7.193e-8, 5.876e-7, 5.010e-7, -8.660e-8
0.244, 4.281e-7, 4.306e-7, 2.513e-9, 4.498e-7, 4.485e-7, -1.276e-9, 4.007e-7, 3.994e-7, -1.256e-9, 4.087e-7, 4.069e-7, -1.857e-9, 5.470e-7, 4.831e-7, -6.395e-8, 5.934e-7, 5.129e-7, -8.041e-8, 5.424e-7, 4.730e-7, -6.934e-8, 5.795e-7, 4.954e-7, -8.412e-8
0.240, 4.217e-7, 4.259e-7, 4.167e-9, 4.445e-7, 4.444e-7, -1.151e-10, 3.950e-7, 3.951e-7, 1.018e-10, 4.026e-7, 4.018e-7, -8.436e-10, 5.392e-7, 4.776e-7, -6.159e-8, 5.867e-7, 5.081e-7, -7.858e-8, 5.342e-7, 4.674e-7, -6.676e-8, 5.730e-7, 4.908e-7, -8.225e-8
0.236, 4.147e-7, 4.202e-7, 5.505e-9, 4.387e-7, 4.396e-7, 8.592e-10, 3.881e-7, 3.891e-7, 1.047e-9, 3.962e-7, 3.968e-7, 6.227e-10, 5.310e-7, 4.713e-7, -5.971e-8, 5.782e-7, 5.021e-7, -7.612e-8, 5.261e-7, 4.613e-7, -6.483e-8, 5.654e-7, 4.849e-7, -8.048e-8
0.232, 4.072e-7, 4.147e-7, 7.444e-9, 4.334e-7, 4.350e-7, 1.587e-9, 3.807e-7, 3.835e-7, 2.749e-9, 3.894e-7, 3.917e-7, 2.247e-9, 5.228e-7, 4.651e-7, -5.769e-8, 5.706e-7, 4.962e-7, -7.440e-8, 5.178e-7, 4.553e-7, -6.256e-8, 5.574e-7, 4.793e-7, -7.817e-8
0.228, 4.006e-7, 4.089e-7, 8.359e-9, 4.269e-7, 4.302e-7, 3.359e-9, 3.733e-7, 3.780e-7, 4.658e-9, 3.828e-7, 3.862e-7, 3.378e-9, 5.149e-7, 4.592e-7, -5.573e-8, 5.632e-7, 4.905e-7, -7.265e-8, 5.102e-7, 4.495e-7, -6.070e-8, 5.495e-7, 4.734e-7, -7.609e-8
0.224, 3.939e-7, 4.039e-7, 9.983e-9, 4.216e-7, 4.257e-7, 4.038e-9, 3.669e-7, 3.725e-7, 5.613e-9, 3.769e-7, 3.811e-7, 4.234e-9, 5.069e-7, 4.533e-7, -5.356e-8, 5.560e-7, 4.856e-7, -7.041e-8, 5.032e-7, 4.443e-7, -5.900e-8, 5.435e-7, 4.692e-7, -7.431e-8
0.220, 3.877e-7, 3.984e-7, 1.066e-8, 4.157e-7, 4.202e-7, 4.540e-9, 3.607e-7, 3.673e-7, 6.568e-9, 3.710e-7, 3.764e-7, 5.474e-9, 4.994e-7, 4.474e-7, -5.200e-8, 5.478e-7, 4.795e-7, -6.829e-8, 4.949e-7, 4.382e-7, -5.668e-8, 5.355e-7, 4.630e-7, -7.243e-8
0.216, 3.805e-7, 3.927e-7, 1.228e-8, 4.093e-7, 4.154e-7, 6.105e-9, 3.546e-7, 3.625e-7, 7.936e-9, 3.648e-7, 3.714e-7, 6.567e-9, 4.924e-7, 4.423e-7, -5.015e-8, 5.407e-7, 4.740e-7, -6.673e-8, 4.876e-7, 4.328e-7, -5.477e-8, 5.282e-7, 4.581e-7, -7.017e-8
0.212, 3.746e-7, 3.872e-7, 1.265e-8, 4.039e-7, 4.105e-7, 6.606e-9, 3.486e-7, 3.570e-7, 8.388e-9, 3.590e-7, 3.663e-7, 7.266e-9, 4.852e-7, 4.364e-7, -4.874e-8, 5.335e-7, 4.682e-7, -6.526e-8, 4.803e-7, 4.266e-7, -5.378e-8, 5.212e-7, 4.520e-7, -6.923e-8
0.208, 3.681e-7, 3.817e-7, 1.357e-8, 3.974e-7, 4.049e-7, 7.473e-9, 3.424e-7, 3.518e-7, 9.431e-9, 3.534e-7, 3.617e-7, 8.269e-9, 4.775e-7, 4.307e-7, -4.680e-8, 5.265e-7, 4.630e-7, -6.348e-8, 4.733e-7, 4.214e-7, -5.198e-8, 5.139e-7, 4.469e-7, -6.707e-8
0.204, 3.620e-7, 3.772e-7, 1.517e-8, 3.917e-7, 4.004e-7, 8.752e-9, 3.364e-7, 3.470e-7, 1.055e-8, 3.480e-7, 3.576e-7, 9.549e-9, 4.711e-7, 4.261e-7, -4.508e-8, 5.198e-7, 4.585e-7, -6.123e-8, 4.666e-7, 4.165e-7, -5.008e-8, 5.081e-7, 4.427e-7, -6.544e-8
0.200, 3.556e-7, 3.716e-7, 1.595e-8, 3.854e-7, 3.948e-7, 9.431e-9, 3.301e-7, 3.416e-7, 1.144e-8, 3.413e-7, 3.518e-7, 1.050e-8, 4.633e-7, 4.199e-7, -4.347e-8, 5.122e-7, 4.524e-7, -5.985e-8, 4.595e-7, 4.110e-7, -4.847e-8, 5.007e-7, 4.367e-7, -6.396e-8
0.196, 3.492e-7, 3.655e-7, 1.632e-8, 3.788e-7, 3.894e-7, 1.058e-8, 3.241e-7, 3.366e-7, 1.253e-8, 3.357e-7, 3.467e-7, 1.091e-8, 4.560e-7, 4.141e-7, -4.189e-8, 5.046e-7, 4.466e-7, -5.801e-8, 4.517e-7, 4.051e-7, -4.655e-8, 4.933e-7, 4.313e-7, -6.198e-8
0.192, 3.431e-7, 3.607e-7, 1.760e-8, 3.722e-7, 3.841e-7, 1.187e-8, 3.192e-7, 3.320e-7, 1.274e-8, 3.303e-7, 3.426e-7, 1.228e-8, 4.494e-7, 4.093e-7, -4.012e-8, 4.982e-7, 4.421e-7, -5.619e-8, 4.445e-7, 3.999e-7, -4.458e-8, 4.876e-7, 4.271e-7, -6.048e-8
0.188, 3.362e-7, 3.547e-7, 1.848e-8, 3.652e-7, 3.784e-7, 1.320e-8, 3.125e-7, 3.268e-7, 1.426e-8, 3.245e-7, 3.377e-7, 1.319e-8, 4.422e-7, 4.037e-7, -3.856e-8, 4.914e-7, 4.367e-7, -5.466e-8, 4.379e-7, 3.948e-7, -4.307e-8, 4.806e-7, 4.220e-7, -5.857e-8
0.184, 3.305e-7, 3.500e-7, 1.943e-8, 3.596e-7, 3.738e-7, 1.422e-8, 3.076e-7, 3.225e-7, 1.490e-8, 3.189e-7, 3.328e-7, 1.390e-8, 4.359e-7, 3.988e-7, -3.711e-8, 4.850e-7, 4.321e-7, -5.291e-8, 4.320e-7, 3.898e-7, -4.219e-8, 4.750e-7, 4.174e-7, -5.758e-8
0.180, 3.247e-7, 3.445e-7, 1.985e-8, 3.533e-7, 3.684e-7, 1.510e-8, 3.020e-7, 3.175e-7, 1.554e-8, 3.138e-7, 3.284e-7, 1.455e-8, 4.295e-7, 3.933e-7, -3.618e-8, 4.783e-7, 4.266e-7, -5.172e-8, 4.247e-7, 3.844e-7, -4.026e-8, 4.681e-7, 4.125e-7, -5.563e-8
0.176, 3.189e-7, 3.394e-7, 2.043e-8, 3.473e-7, 3.628e-7, 1.551e-8, 2.966e-7, 3.128e-7, 1.612e-8, 3.093e-7, 3.242e-7, 1.494e-8, 4.234e-7, 3.883e-7, -3.510e-8, 4.726e-7, 4.216e-7, -5.103e-8, 4.189e-7, 3.795e-7, -3.945e-8, 4.626e-7, 4.078e-7, -5.482e-8
0.172, 3.130e-7, 3.345e-7, 2.150e-8, 3.414e-7, 3.579e-7, 1.643e-8, 2.917e-7, 3.083e-7, 1.660e-8, 3.033e-7, 3.195e-7, 1.613e-8, 4.169e-7, 3.834e-7, -3.351e-8, 4.649e-7, 4.162e-7, -4.863e-8, 4.123e-7, 3.741e-7, -3.818e-8, 4.565e-7, 4.032e-7, -5.329e-8
0.168, 3.081e-7, 3.298e-7, 2.168e-8, 3.369e-7, 3.539e-7, 1.704e-8, 2.868e-7, 3.040e-7, 1.719e-8, 2.995e-7, 3.155e-7, 1.595e-8, 4.116e-7, 3.789e-7, -3.272e-8, 4.609e-7, 4.124e-7, -4.846e-8, 4.069e-7, 3.699e-7, -3.703e-8, 4.517e-7, 3.989e-7, -5.277e-8
0.164, 3.028e-7, 3.251e-7, 2.226e-8, 3.315e-7, 3.491e-7, 1.756e-8, 2.823e-7, 2.997e-7, 1.745e-8, 2.946e-7, 3.111e-7, 1.647e-8, 4.056e-7, 3.740e-7, -3.159e-8, 4.555e-7, 4.080e-7, -4.749e-8, 4.010e-7, 3.651e-7, -3.586e-8, 4.472e-7, 3.947e-7, -5.242e-8
0.160, 2.977e-7, 3.208e-7, 2.309e-8, 3.266e-7, 3.445e-7, 1.788e-8, 2.783e-7, 2.960e-7, 1.767e-8, 2.907e-7, 3.074e-7, 1.677e-8, 4.006e-7, 3.696e-7, -3.103e-8, 4.493e-7, 4.031e-7, -4.616e-8, 3.962e-7, 3.607e-7, -3.547e-8, 4.417e-7, 3.909e-7, -5.078e-8
0.156, 2.935e-7, 3.164e-7, 2.293e-8, 3.215e-7, 3.401e-7, 1.852e-8, 2.742e-7, 2.921e-7, 1.788e-8, 2.871e-7, 3.044e-7, 1.725e-8, 3.953e-7, 3.652e-7, -3.010e-8, 4.443e-7, 3.989e-7, -4.543e-8, 3.909e-7, 3.568e-7, -3.412e-8, 4.367e-7, 3.867e-7, -5.000e-8
0.152, 2.894e-7, 3.125e-7, 2.310e-8, 3.180e-7, 3.367e-7, 1.867e-8, 2.707e-7, 2.885e-7, 1.782e-8, 2.832e-7, 3.005e-7, 1.730e-8, 3.909e-7, 3.614e-7, -2.944e-8, 4.395e-7, 3.953e-7, -4.420e-8, 3.855e-7, 3.524e-7, -3.314e-8, 4.325e-7, 3.830e-7, -4.947e-8
0.148, 2.852e-7, 3.086e-7, 2.341e-8, 3.131e-7, 3.322e-7, 1.909e-8, 2.667e-7, 2.849e-7, 1.814e-8, 2.797e-7, 2.971e-7, 1.736e-8, 3.854e-7, 3.567e-7, -2.870e-8, 4.349e-7, 3.915e-7, -4.343e-8, 3.807e-7, 3.483e-7, -3.246e-8, 4.274e-7, 3.793e-7, -4.813e-8
0.144, 2.812e-7, 3.051e-7, 2.390e-8, 3.092e-7, 3.289e-7, 1.975e-8, 2.636e-7, 2.819e-7, 1.830e-8, 2.761e-7, 2.939e-7, 1.781e-8, 3.806e-7, 3.533e-7, -2.736e-8, 4.301e-7, 3.878e-7, -4.235e-8, 3.766e-7, 3.448e-7, -3.173e-8, 4.231e-7, 3.761e-7, -4.707e-8
0.140, 2.788e-7, 3.022e-7, 2.346e-8, 3.070e-7, 3.261e-7, 1.905e-8, 2.607e-7, 2.791e-7, 1.841e-8, 2.744e-7, 2.918e-7, 1.737e-8, 3.777e-7, 3.501e-7, -2.760e-8, 4.271e-7, 3.849e-7, -4.226e-8, 3.732e-7, 3.418e-7, -3.149e-8, 4.209e-7, 3.736e-7, -4.735e-8
0.136, 2.747e-7, 2.985e-7, 2.382e-8, 3.039e-7, 3.228e-7, 1.897e-8, 2.575e-7, 2.759e-7, 1.837e-8, 2.719e-7, 2.888e-7, 1.692e-8, 3.737e-7, 3.466e-7, -2.707e-8, 4.225e-7, 3.812e-7, -4.125e-8, 3.689e-7, 3.378e-7, -3.112e-8, 4.161e-7, 3.698e-7, -4.632e-8
0.132, 2.723e-7, 2.956e-7, 2.332e-8, 3.007e-7, 3.195e-7, 1.885e-8, 2.556e-7, 2.731e-7, 1.741e-8, 2.697e-7, 2.863e-7, 1.665e-8, 3.701e-7, 3.431e-7, -2.694e-8, 4.192e-7, 3.779e-7, -4.132e-8, 3.646e-7, 3.340e-7, -3.053e-8, 4.135e-7, 3.669e-7, -4.659e-8
0.128, 2.693e-7, 2.927e-7, 2.346e-8, 2.982e-7, 3.172e-7, 1.904e-8, 2.530e-7, 2.708e-7, 1.774e-8, 2.673e-7, 2.841e-7, 1.679e-8, 3.664e-7, 3.401e-7, -2.630e-8, 4.160e-7, 3.753e-7, -4.071e-8, 3.620e-7, 3.316e-7, -3.040e-8, 4.104e-7, 3.645e-7, -4.592e-8
0.124, 2.668e-7, 2.897e-7, 2.289e-8, 2.955e-7, 3.144e-7, 1.884e-8, 2.504e-7, 2.678e-7, 1.742e-8, 2.656e-7, 2.819e-7, 1.626e-8, 3.630e-7, 3.369e-7, -2.617e-8, 4.127e-7, 3.723e-7, -4.031e-8, 3.584e-7, 3.285e-7, -2.991e-8, 4.066e-7, 3.613e-7, -4.535e-8
0.120, 2.649e-7, 2.873e-7, 2.241e-8, 2.943e-7, 3.123e-7, 1.796e-8, 2.490e-7, 2.661e-7, 1.707e-8, 2.644e-7, 2.800e-7, 1.565e-8, 3.605e-7, 3.343e-7, -2.618e-8, 4.101e-7, 3.697e-7, -4.036e-8, 3.553e-7, 3.255e-7, -2.986e-8, 4.048e-7, 3.595e-7, -4.530e-8
0.116, 2.632e-7, 2.853e-7, 2.212e-8, 2.934e-7, 3.110e-7, 1.759e-8, 2.478e-7, 2.642e-7, 1.639e-8, 2.632e-7, 2.785e-7, 1.530e-8, 3.580e-7, 3.319e-7, -2.603e-8, 4.076e-7, 3.678e-7, -3.986e-8, 3.525e-7, 3.232e-7, -2.935e-8, 4.025e-7, 3.572e-7, -4.528e-8
0.112, 2.616e-7, 2.831e-7, 2.147e-8, 2.912e-7, 3.082e-7, 1.703e-8, 2.456e-7, 2.618e-7, 1.615e-8, 2.615e-7, 2.763e-7, 1.474e-8, 3.553e-7, 3.291e-7, -2.623e-8, 4.047e-7, 3.650e-7, -3.973e-8, 3.495e-7, 3.199e-7, -2.959e-8, 3.999e-7, 3.549e-7, -4.508e-8
0.108, 2.593e-7, 2.813e-7, 2.196e-8, 2.898e-7, 3.066e-7, 1.680e-8, 2.450e-7, 2.608e-7, 1.582e-8, 2.601e-7, 2.748e-7, 1.476e-8, 3.524e-7, 3.271e-7, -2.535e-8, 4.026e-7, 3.632e-7, -3.935e-8, 3.475e-7, 3.184e-7, -2.911e-8, 3.979e-7, 3.531e-7, -4.479e-8
0.104, 2.586e-7, 2.796e-7, 2.109e-8, 2.889e-7, 3.053e-7, 1.635e-8, 2.436e-7, 2.591e-7, 1.546e-8, 2.596e-7, 2.737e-7, 1.402e-8, 3.506e-7, 3.250e-7, -2.562e-8, 4.011e-7, 3.615e-7, -3.961e-8, 3.455e-7, 3.165e-7, -2.902e-8, 3.958e-7, 3.513e-7, -4.447e-8
0.100, 2.579e-7, 2.778e-7, 1.987e-8, 2.884e-7, 3.040e-7, 1.565e-8, 2.427e-7, 2.575e-7, 1.480e-8, 2.594e-7, 2.728e-7, 1.340e-8, 3.488e-7, 3.229e-7, -2.588e-8, 3.996e-7, 3.599e-7, -3.970e-8, 3.437e-7, 3.141e-7, -2.959e-8, 3.944e-7, 3.494e-7, -4.493e-8
0.096, 2.576e-7, 2.766e-7, 1.902e-8, 2.887e-7, 3.031e-7, 1.446e-8, 2.426e-7, 2.566e-7, 1.400e-8, 2.599e-7, 2.720e-7, 1.216e-8, 3.481e-7, 3.218e-7, -2.630e-8, 3.984e-7, 3.583e-7, -4.011e-8, 3.426e-7, 3.124e-7, -3.019e-8, 3.933e-7, 3.482e-7, -4.518e-8
0.092, 2.568e-7, 2.752e-7, 1.843e-8, 2.884e-7, 3.020e-7, 1.352e-8, 2.424e-7, 2.555e-7, 1.315e-8, 2.592e-7, 2.709e-7, 1.167e-8, 3.470e-7, 3.198e-7, -2.723e-8, 3.971e-7, 3.567e-7, -4.038e-8, 3.410e-7, 3.109e-7, -3.005e-8, 3.925e-7, 3.469e-7, -4.559e-8
0.088, 2.568e-7, 2.749e-7, 1.808e-8, 2.895e-7, 3.022e-7, 1.271e-8, 2.429e-7, 2.552e-7, 1.231e-8, 2.611e-7, 2.715e-7, 1.047e-8, 3.459e-7, 3.189e-7, -2.701e-8, 3.974e-7, 3.561e-7, -4.133e-8, 3.405e-7, 3.100e-7, -3.048e-8, 3.918e-7, 3.461e-7, -4.576e-8
0.084, 2.569e-7, 2.738e-7, 1.692e-8, 2.894e-7, 3.014e-7, 1.201e-8, 2.422e-7, 2.539e-7, 1.174e-8, 2.611e-7, 2.707e-7, 9.657e-9, 3.445e-7, 3.171e-7, -2.737e-8, 3.965e-7, 3.551e-7, -4.142e-8, 3.389e-7, 3.081e-7, -3.080e-8, 3.912e-7, 3.449e-7, -4.625e-8
0.080, 2.571e-7, 2.736e-7, 1.646e-8, 2.900e-7, 3.015e-7, 1.147e-8, 2.423e-7, 2.536e-7, 1.137e-8, 2.618e-7, 2.713e-7, 9.519e-9, 3.440e-7, 3.164e-7, -2.759e-8, 3.957e-7, 3.544e-7, -4.135e-8, 3.377e-7, 3.072e-7, -3.055e-8, 3.903e-7, 3.443e-7, -4.597e-8
0.076, 2.577e-7, 2.729e-7, 1.514e-8, 2.917e-7, 3.017e-7, 9.982e-9, 2.437e-7, 2.536e-7, 9.992e-9, 2.639e-7, 2.717e-7, 7.826e-9, 3.443e-7, 3.158e-7, -2.853e-8, 3.961e-7, 3.539e-7, -4.227e-8, 3.373e-7, 3.060e-7, -3.122e-8, 3.907e-7, 3.435e-7, -4.718e-8
0.072, 2.581e-7, 2.728e-7, 1.466e-8, 2.927e-7, 3.021e-7, 9.401e-9, 2.437e-7, 2.528e-7, 9.126e-9, 2.655e-7, 2.718e-7, 6.252e-9, 3.440e-7, 3.153e-7, -2.874e-8, 3.968e-7, 3.536e-7, -4.318e-8, 3.374e-7, 3.053e-7, -3.206e-8, 3.906e-7, 3.430e-7, -4.760e-8
0.068, 2.592e-7, 2.729e-7, 1.362e-8, 2.944e-7, 3.026e-7, 8.171e-9, 2.451e-7, 2.534e-7, 8.290e-9, 2.663e-7, 2.723e-7, 5.957e-9, 3.432e-7, 3.141e-7, -2.918e-8, 3.959e-7, 3.529e-7, -4.296e-8, 3.371e-7, 3.048e-7, -3.233e-8, 3.907e-7, 3.428e-7, -4.786e-8
0.064, 2.605e-7, 2.739e-7, 1.342e-8, 2.973e-7, 3.048e-7, 7.482e-9, 2.464e-7, 2.540e-7, 7.581e-9, 2.684e-7, 2.737e-7, 5.287e-9, 3.438e-7, 3.143e-7, -2.949e-8, 3.969e-7, 3.531e-7, -4.371e-8, 3.371e-7, 3.046e-7, -3.245e-8, 3.916e-7, 3.432e-7, -4.841e-8
0.060, 2.623e-7, 2.748e-7, 1.249e-8, 2.995e-7, 3.057e-7, 6.173e-9, 2.482e-7, 2.546e-7, 6.489e-9, 2.703e-7, 2.748e-7, 4.480e-9, 3.442e-7, 3.138e-7, -3.037e-8, 3.974e-7, 3.532e-7, -4.414e-8, 3.372e-7, 3.041e-7, -3.312e-8, 3.920e-7, 3.427e-7, -4.925e-8
0.056, 2.652e-7, 2.762e-7, 1.094e-8, 3.030e-7, 3.081e-7, 5.032e-9, 2.507e-7, 2.560e-7, 5.337e-9, 2.745e-7, 2.767e-7, 2.207e-9, 3.455e-7, 3.140e-7, -3.151e-8, 3.995e-7, 3.539e-7, -4.561e-8, 3.381e-7, 3.042e-7, -3.393e-8, 3.935e-7, 3.435e-7, -4.996e-8
0.052, 2.665e-7, 2.778e-7, 1.124e-8, 3.058e-7, 3.104e-7, 4.638e-9, 2.521e-7, 2.570e-7, 4.914e-9, 2.759e-7, 2.785e-7, 2.532e-9, 3.461e-7, 3.144e-7, -3.169e-8, 3.999e-7, 3.545e-7, -4.541e-8, 3.387e-7, 3.044e-7, -3.427e-8, 3.940e-7, 3.436e-7, -5.045e-8
0.048, 2.706e-7, 2.806e-7, 9.973e-9, 3.104e-7, 3.140e-7, 3.644e-9, 2.548e-7, 2.587e-7, 3.881e-9, 2.804e-7, 2.814e-7, 1.046e-9, 3.481e-7, 3.159e-7, -3.229e-8, 4.026e-7, 3.561e-7, -4.650e-8, 3.401e-7, 3.052e-7, -3.487e-8, 3.955e-7, 3.446e-7, -5.085e-8
0.044, 2.735e-7, 2.832e-7, 9.678e-9, 3.150e-7, 3.181e-7, 3.044e-9, 2.575e-7, 2.610e-7, 3.487e-9, 2.844e-7, 2.847e-7, 3.371e-10, 3.493e-7, 3.168e-7, -3.250e-8, 4.038e-7, 3.569e-7, -4.690e-8, 3.415e-7, 3.062e-7, -3.524e-8, 3.968e-7, 3.454e-7, -5.139e-8
0.040, 2.771e-7, 2.865e-7, 9.363e-9, 3.200e-7, 3.227e-7, 2.660e-9, 2.605e-7, 2.633e-7, 2.808e-9, 2.882e-7, 2.882e-7, 7.137e-11, 3.516e-7, 3.182e-7, -3.333e-8, 4.062e-7, 3.589e-7, -4.734e-8, 3.421e-7, 3.064e-7, -3.561e-8, 3.988e-7, 3.467e-7, -5.215e-8
0.036, 2.817e-7, 2.902e-7, 8.497e-9, 3.268e-7, 3.284e-7, 1.676e-9, 2.643e-7, 2.664e-7, 2.158e-9, 2.933e-7, 2.931e-7, -1.550e-10, 3.532e-7, 3.195e-7, -3.367e-8, 4.088e-7, 3.606e-7, -4.823e-8, 3.442e-7, 3.079e-7, -3.624e-8, 4.003e-7, 3.481e-7, -5.227e-8
0.032, 2.870e-7, 2.949e-7, 7.955e-9, 3.339e-7, 3.351e-7, 1.203e-9, 2.676e-7, 2.695e-7, 1.834e-9, 2.986e-7, 2.977e-7, -9.029e-10, 3.556e-7, 3.216e-7, -3.399e-8, 4.122e-7, 3.632e-7, -4.899e-8, 3.463e-7, 3.099e-7, -3.646e-8, 4.027e-7, 3.496e-7, -5.304e-8
0.028, 2.928e-7, 3.010e-7, 8.201e-9, 3.414e-7, 3.429e-7, 1.518e-9, 2.731e-7, 2.741e-7, 1.017e-9, 3.046e-7, 3.034e-7, -1.228e-9, 3.586e-7, 3.245e-7, -3.413e-8, 4.159e-7, 3.666e-7, -4.930e-8, 3.487e-7, 3.120e-7, -3.668e-8, 4.060e-7, 3.523e-7, -5.372e-8
0.024, 2.994e-7, 3.073e-7, 7.886e-9, 3.509e-7, 3.519e-7, 1.007e-9, 2.792e-7, 2.797e-7, 5.445e-10, 3.121e-7, 3.103e-7, -1.779e-9, 3.629e-7, 3.279e-7, -3.502e-8, 4.204e-7, 3.705e-7, -4.993e-8, 3.524e-7, 3.146e-7, -3.781e-8, 4.100e-7, 3.558e-7, -5.419e-8
0.020, 3.072e-7, 3.153e-7, 8.005e-9, 3.607e-7, 3.624e-7, 1.676e-9, 2.842e-7, 2.852e-7, 1.017e-9, 3.200e-7, 3.181e-7, -1.858e-9, 3.669e-7, 3.318e-7, -3.517e-8, 4.242e-7, 3.743e-7, -4.994e-8, 3.551e-7, 3.175e-7, -3.758e-8, 4.130e-7, 3.589e-7, -5.416e-8
0.016, 3.154e-7, 3.242e-7, 8.743e-9, 3.712e-7, 3.741e-7, 2.886e-9, 2.913e-7, 2.921e-7, 7.413e-10, 3.281e-7, 3.266e-7, -1.562e-9, 3.707e-7, 3.359e-7, -3.480e-8, 4.294e-7, 3.793e-7, -5.013e-8, 3.591e-7, 3.216e-7, -3.752e-8, 4.170e-7, 3.626e-7, -5.441e-8
0.012, 3.249e-7, 3.338e-7, 8.880e-9, 3.840e-7, 3.873e-7, 3.241e-9, 2.988e-7, 2.994e-7, 6.724e-10, 3.367e-7, 3.354e-7, -1.336e-9, 3.760e-7, 3.410e-7, -3.500e-8, 4.354e-7, 3.846e-7, -5.081e-8, 3.629e-7, 3.250e-7, -3.793e-8, 4.225e-7, 3.673e-7, -5.516e-8
0.008, 3.353e-7, 3.456e-7, 1.030e-8, 3.990e-7, 4.035e-7, 4.549e-9, 3.066e-7, 3.084e-7, 1.755e-9, 3.472e-7, 3.466e-7, -5.880e-10, 3.817e-7, 3.470e-7, -3.476e-8, 4.414e-7, 3.915e-7, -4.996e-8, 3.687e-7, 3.306e-7, -3.807e-8, 4.275e-7, 3.730e-7, -5.447e-8
0.004, 3.471e-7, 3.591e-7, 1.204e-8, 4.142e-7, 4.212e-7, 6.970e-9, 3.157e-7, 3.184e-7, 2.660e-9, 3.583e-7, 3.592e-7, 9.472e-10, 3.880e-7, 3.537e-7, -3.434e-8, 4.478e-7, 3.985e-7, -4.936e-8, 3.741e-7, 3.363e-7, -3.786e-8, 4.326e-7, 3.783e-7, -5.426e-8
0.000, 3.609e-7, 3.741e-7, 1.319e-8, 4.324e-7, 4.415e-7, 9.106e-9, 3.267e-7, 3.299e-7, 3.211e-9, 3.722e-7, 3.739e-7, 1.715e-9, 3.957e-7, 3.616e-7, -3.412e-8, 4.572e-7, 4.076e-7, -4.952e-8, 3.797e-7, 3.425e-7, -3.722e-8, 4.394e-7, 3.855e-7, -5.384e-8
