June 21, 2026   16:24:09
Square Wave Voltammetry
File: c:/users/i2blu/downloads/da_exp/outputs\swv_10hz_reduction_cond2_da0_aa10_ua0_3.bin
Data Source:  Experiment
Instrument Model:  CHI1040C
Header: 
Note: 

Init E (V) = 0.9
Final E (V) = 0
Incr E (V) = 0.004
Amplitude (V) = 0.025
Frequency (Hz) = 10
Quiet Time (sec) = 0.1
Sensitivity (A/V) = 1e-5

E2 Scan On
Sens 2 = 1e-005

E3 Scan On
Sens 3 = 1e-005

E4 Scan On
Sens 4 = 1e-005

E5 Scan On
Sens 5 = 1e-005

E6 Scan On
Sens 6 = 1e-005

E7 Scan On
Sens 7 = 1e-005

E8 Scan On
Sens 8 = 1e-005

Results:

Channel 1:
Difference:
Ep = 0.320V
ip = 1.258e-7A
Ap = 1.621e-8VA

Forward:

Reverse:
Ep = 0.316V
ip = -5.273e-8A
Ah = -3.718e-9VA

Channel 2:
Difference:
Ep = 0.332V
ip = 9.413e-8A
Ap = 1.278e-8VA

Forward:

Reverse:
Ep = 0.328V
ip = -5.179e-8A
Ah = -4.140e-9VA

Channel 3:
Difference:
Ep = 0.316V
ip = 1.085e-7A
Ap = 1.433e-8VA

Forward:

Reverse:
Ep = 0.316V
ip = -4.103e-8A
Ah = -3.284e-9VA

Channel 4:
Difference:
Ep = 0.316V
ip = 8.661e-8A
Ap = 1.134e-8VA

Forward:

Reverse:
Ep = 0.316V
ip = -3.918e-8A
Ah = -3.019e-9VA

Channel 5:
Difference:
Ep = 0.316V
ip = 1.297e-7A
Ap = 1.632e-8VA

Forward:

Reverse:
Ep = 0.316V
ip = -6.954e-8A
Ah = -5.957e-9VA

Channel 6:
Difference:
Ep = 0.316V
ip = 1.197e-7A
Ap = 1.482e-8VA

Forward:

Reverse:
Ep = 0.316V
ip = -7.411e-8A
Ah = -6.527e-9VA

Channel 7:
Difference:
Ep = 0.316V
ip = 1.282e-7A
Ap = 1.602e-8VA

Forward:

Reverse:
Ep = 0.312V
ip = -6.785e-8A
Ah = -5.677e-9VA

Channel 8:
Difference:
Ep = 0.320V
ip = 1.113e-7A
Ap = 1.342e-8VA

Forward:

Reverse:
Ep = 0.316V
ip = -7.462e-8A
Ah = -6.509e-9VA

Potential/V, i1d/A, i1f/A, i1r/A, i2d/A, i2f/A, i2r/A, i3d/A, i3f/A, i3r/A, i4d/A, i4f/A, i4r/A, i5d/A, i5f/A, i5r/A, i6d/A, i6f/A, i6r/A, i7d/A, i7f/A, i7r/A, i8d/A, i8f/A, i8r/A

0.896, 1.066e-5, -5.004e-6, -1.566e-5, 1.293e-5, -5.676e-6, -1.861e-5, 9.381e-6, -4.492e-6, -1.387e-5, 1.134e-5, -5.104e-6, -1.645e-5, 8.329e-6, -4.356e-6, -1.269e-5, 1.021e-5, -5.075e-6, -1.529e-5, 7.718e-6, -4.120e-6, -1.184e-5, 9.078e-6, -4.687e-6, -1.376e-5
0.892, 9.540e-6, -3.314e-6, -1.285e-5, 1.167e-5, -3.676e-6, -1.534e-5, 8.372e-6, -2.974e-6, -1.135e-5, 1.020e-5, -3.332e-6, -1.353e-5, 7.461e-6, -2.820e-6, -1.028e-5, 9.240e-6, -3.238e-6, -1.248e-5, 6.903e-6, -2.665e-6, -9.568e-6, 8.178e-6, -3.015e-6, -1.119e-5
0.888, 8.523e-6, -2.353e-6, -1.088e-5, 1.045e-5, -2.570e-6, -1.302e-5, 7.455e-6, -2.122e-6, -9.577e-6, 9.118e-6, -2.354e-6, -1.147e-5, 6.640e-6, -2.006e-6, -8.647e-6, 8.276e-6, -2.282e-6, -1.056e-5, 6.132e-6, -1.908e-6, -8.040e-6, 7.301e-6, -2.155e-6, -9.456e-6
0.884, 7.699e-6, -1.655e-6, -9.355e-6, 9.459e-6, -1.772e-6, -1.123e-5, 6.717e-6, -1.508e-6, -8.225e-6, 8.235e-6, -1.652e-6, -9.887e-6, 5.979e-6, -1.438e-6, -7.417e-6, 7.483e-6, -1.617e-6, -9.100e-6, 5.510e-6, -1.382e-6, -6.893e-6, 6.587e-6, -1.559e-6, -8.146e-6
0.880, 7.032e-6, -1.103e-6, -8.136e-6, 8.642e-6, -1.142e-6, -9.783e-6, 6.118e-6, -1.026e-6, -7.144e-6, 7.509e-6, -1.099e-6, -8.608e-6, 5.445e-6, -9.980e-7, -6.443e-6, 6.835e-6, -1.101e-6, -7.937e-6, 5.008e-6, -9.782e-7, -5.986e-6, 6.004e-6, -1.099e-6, -7.103e-6
0.876, 6.484e-6, -6.493e-7, -7.133e-6, 7.963e-6, -6.240e-7, -8.587e-6, 5.628e-6, -6.306e-7, -6.259e-6, 6.909e-6, -6.464e-7, -7.555e-6, 5.003e-6, -6.434e-7, -5.647e-6, 6.294e-6, -6.859e-7, -6.980e-6, 4.594e-6, -6.531e-7, -5.247e-6, 5.521e-6, -7.285e-7, -6.250e-6
0.872, 6.028e-6, -2.646e-7, -6.292e-6, 7.392e-6, -1.860e-7, -7.578e-6, 5.218e-6, -2.973e-7, -5.515e-6, 6.402e-6, -2.637e-7, -6.666e-6, 4.634e-6, -3.478e-7, -4.982e-6, 5.839e-6, -3.376e-7, -6.176e-6, 4.249e-6, -3.824e-7, -4.631e-6, 5.112e-6, -4.194e-7, -5.531e-6
0.868, 5.645e-6, 7.012e-8, -5.575e-6, 6.910e-6, 1.935e-7, -6.717e-6, 4.875e-6, -8.519e-9, -4.884e-6, 5.975e-6, 6.754e-8, -5.908e-6, 4.324e-6, -9.440e-8, -4.418e-6, 5.450e-6, -3.966e-8, -5.490e-6, 3.956e-6, -1.516e-7, -4.108e-6, 4.767e-6, -1.540e-7, -4.921e-6
0.864, 5.322e-6, 3.651e-7, -4.957e-6, 6.499e-6, 5.272e-7, -5.972e-6, 4.587e-6, 2.478e-7, -4.339e-6, 5.611e-6, 3.594e-7, -5.252e-6, 4.063e-6, 1.291e-7, -3.934e-6, 5.120e-6, 2.221e-7, -4.898e-6, 3.710e-6, 5.109e-8, -3.659e-6, 4.472e-6, 7.907e-8, -4.393e-6
0.860, 5.045e-6, 6.282e-7, -4.417e-6, 6.144e-6, 8.234e-7, -5.320e-6, 4.343e-6, 4.766e-7, -3.866e-6, 5.301e-6, 6.197e-7, -4.681e-6, 3.842e-6, 3.272e-7, -3.514e-6, 4.835e-6, 4.540e-7, -4.381e-6, 3.502e-6, 2.315e-7, -3.270e-6, 4.220e-6, 2.863e-7, -3.933e-6
0.856, 4.807e-6, 8.653e-7, -3.941e-6, 5.833e-6, 1.087e-6, -4.746e-6, 4.134e-6, 6.831e-7, -3.451e-6, 5.029e-6, 8.526e-7, -4.176e-6, 3.652e-6, 5.059e-7, -3.146e-6, 4.588e-6, 6.625e-7, -3.925e-6, 3.322e-6, 3.938e-7, -2.928e-6, 4.001e-6, 4.722e-7, -3.529e-6
0.852, 4.593e-6, 1.076e-6, -3.517e-6, 5.550e-6, 1.319e-6, -4.232e-6, 3.951e-6, 8.689e-7, -3.082e-6, 4.788e-6, 1.061e-6, -3.727e-6, 3.486e-6, 6.673e-7, -2.819e-6, 4.370e-6, 8.490e-7, -3.521e-6, 3.166e-6, 5.400e-7, -2.626e-6, 3.809e-6, 6.399e-7, -3.169e-6
0.848, 4.401e-6, 1.263e-6, -3.138e-6, 5.293e-6, 1.523e-6, -3.770e-6, 3.788e-6, 1.038e-6, -2.750e-6, 4.571e-6, 1.246e-6, -3.325e-6, 3.341e-6, 8.135e-7, -2.527e-6, 4.173e-6, 1.017e-6, -3.156e-6, 3.029e-6, 6.734e-7, -2.356e-6, 3.637e-6, 7.916e-7, -2.846e-6
0.844, 4.227e-6, 1.430e-6, -2.797e-6, 5.058e-6, 1.702e-6, -3.356e-6, 3.644e-6, 1.189e-6, -2.455e-6, 4.374e-6, 1.411e-6, -2.963e-6, 3.214e-6, 9.472e-7, -2.267e-6, 3.998e-6, 1.168e-6, -2.830e-6, 2.912e-6, 7.959e-7, -2.116e-6, 3.486e-6, 9.299e-7, -2.556e-6
0.840, 4.059e-6, 1.574e-6, -2.485e-6, 4.830e-6, 1.853e-6, -2.977e-6, 3.507e-6, 1.322e-6, -2.184e-6, 4.186e-6, 1.554e-6, -2.632e-6, 3.096e-6, 1.065e-6, -2.031e-6, 3.831e-6, 1.299e-6, -2.532e-6, 2.804e-6, 9.061e-7, -1.898e-6, 3.343e-6, 1.052e-6, -2.291e-6
0.836, 3.896e-6, 1.696e-6, -2.200e-6, 4.606e-6, 1.978e-6, -2.629e-6, 3.375e-6, 1.438e-6, -1.937e-6, 4.002e-6, 1.675e-6, -2.328e-6, 2.985e-6, 1.171e-6, -1.814e-6, 3.670e-6, 1.413e-6, -2.257e-6, 2.703e-6, 1.004e-6, -1.699e-6, 3.208e-6, 1.159e-6, -2.048e-6
0.832, 3.739e-6, 1.798e-6, -1.940e-6, 4.389e-6, 2.078e-6, -2.312e-6, 3.250e-6, 1.539e-6, -1.712e-6, 3.826e-6, 1.776e-6, -2.050e-6, 2.881e-6, 1.263e-6, -1.617e-6, 3.517e-6, 1.510e-6, -2.007e-6, 2.609e-6, 1.091e-6, -1.517e-6, 3.080e-6, 1.253e-6, -1.827e-6
0.828, 3.581e-6, 1.881e-6, -1.700e-6, 4.174e-6, 2.155e-6, -2.019e-6, 3.125e-6, 1.622e-6, -1.502e-6, 3.652e-6, 1.857e-6, -1.795e-6, 2.777e-6, 1.342e-6, -1.435e-6, 3.365e-6, 1.589e-6, -1.777e-6, 2.518e-6, 1.168e-6, -1.350e-6, 2.953e-6, 1.331e-6, -1.622e-6
0.824, 3.423e-6, 1.945e-6, -1.477e-6, 3.961e-6, 2.211e-6, -1.750e-6, 2.999e-6, 1.691e-6, -1.308e-6, 3.476e-6, 1.918e-6, -1.558e-6, 2.675e-6, 1.408e-6, -1.267e-6, 3.213e-6, 1.652e-6, -1.561e-6, 2.428e-6, 1.233e-6, -1.195e-6, 2.827e-6, 1.396e-6, -1.431e-6
0.820, 3.263e-6, 1.992e-6, -1.271e-6, 3.747e-6, 2.246e-6, -1.501e-6, 2.870e-6, 1.742e-6, -1.128e-6, 3.300e-6, 1.961e-6, -1.339e-6, 2.571e-6, 1.461e-6, -1.110e-6, 3.062e-6, 1.698e-6, -1.364e-6, 2.338e-6, 1.287e-6, -1.051e-6, 2.703e-6, 1.448e-6, -1.255e-6
0.816, 3.102e-6, 2.022e-6, -1.080e-6, 3.536e-6, 2.264e-6, -1.273e-6, 2.740e-6, 1.778e-6, -9.618e-7, 3.125e-6, 1.988e-6, -1.137e-6, 2.467e-6, 1.501e-6, -9.657e-7, 2.912e-6, 1.731e-6, -1.181e-6, 2.249e-6, 1.331e-6, -9.186e-7, 2.579e-6, 1.487e-6, -1.092e-6
0.812, 2.942e-6, 2.037e-6, -9.044e-7, 3.327e-6, 2.265e-6, -1.062e-6, 2.610e-6, 1.801e-6, -8.086e-7, 2.951e-6, 1.999e-6, -9.523e-7, 2.363e-6, 1.531e-6, -8.322e-7, 2.764e-6, 1.751e-6, -1.013e-6, 2.160e-6, 1.364e-6, -7.959e-7, 2.457e-6, 1.515e-6, -9.421e-7
0.808, 2.780e-6, 2.039e-6, -7.419e-7, 3.122e-6, 2.251e-6, -8.700e-7, 2.478e-6, 1.812e-6, -6.663e-7, 2.779e-6, 1.997e-6, -7.828e-7, 2.259e-6, 1.550e-6, -7.087e-7, 2.619e-6, 1.759e-6, -8.596e-7, 2.072e-6, 1.390e-6, -6.821e-7, 2.337e-6, 1.533e-6, -8.039e-7
0.804, 2.620e-6, 2.028e-6, -5.926e-7, 2.920e-6, 2.226e-6, -6.943e-7, 2.347e-6, 1.810e-6, -5.363e-7, 2.609e-6, 1.982e-6, -6.276e-7, 2.156e-6, 1.561e-6, -5.947e-7, 2.477e-6, 1.759e-6, -7.184e-7, 1.984e-6, 1.406e-6, -5.773e-7, 2.221e-6, 1.544e-6, -6.777e-7
0.800, 2.463e-6, 2.006e-6, -4.571e-7, 2.727e-6, 2.190e-6, -5.361e-7, 2.218e-6, 1.800e-6, -4.177e-7, 2.446e-6, 1.958e-6, -4.877e-7, 2.055e-6, 1.564e-6, -4.912e-7, 2.342e-6, 1.750e-6, -5.917e-7, 1.898e-6, 1.416e-6, -4.819e-7, 2.110e-6, 1.547e-6, -5.634e-7
0.796, 2.312e-6, 1.977e-6, -3.357e-7, 2.542e-6, 2.147e-6, -3.949e-7, 2.092e-6, 1.781e-6, -3.112e-7, 2.290e-6, 1.927e-6, -3.633e-7, 1.957e-6, 1.560e-6, -3.975e-7, 2.213e-6, 1.736e-6, -4.776e-7, 1.817e-6, 1.421e-6, -3.956e-7, 2.004e-6, 1.545e-6, -4.597e-7
0.792, 2.169e-6, 1.942e-6, -2.265e-7, 2.370e-6, 2.100e-6, -2.698e-7, 1.972e-6, 1.757e-6, -2.148e-7, 2.142e-6, 1.890e-6, -2.517e-7, 1.865e-6, 1.552e-6, -3.135e-7, 2.093e-6, 1.717e-6, -3.759e-7, 1.738e-6, 1.421e-6, -3.168e-7, 1.906e-6, 1.539e-6, -3.672e-7
0.788, 2.033e-6, 1.903e-6, -1.303e-7, 2.208e-6, 2.048e-6, -1.604e-7, 1.857e-6, 1.727e-6, -1.302e-7, 2.002e-6, 1.848e-6, -1.544e-7, 1.776e-6, 1.538e-6, -2.381e-7, 1.980e-6, 1.694e-6, -2.862e-7, 1.662e-6, 1.416e-6, -2.466e-7, 1.811e-6, 1.526e-6, -2.848e-7
0.784, 1.907e-6, 1.862e-6, -4.591e-8, 2.059e-6, 1.995e-6, -6.442e-8, 1.750e-6, 1.694e-6, -5.544e-8, 1.874e-6, 1.804e-6, -6.928e-8, 1.693e-6, 1.522e-6, -1.707e-7, 1.875e-6, 1.668e-6, -2.063e-7, 1.591e-6, 1.408e-6, -1.832e-7, 1.723e-6, 1.512e-6, -2.112e-7
0.780, 1.791e-6, 1.818e-6, 2.653e-8, 1.924e-6, 1.940e-6, 1.646e-8, 1.649e-6, 1.658e-6, 9.245e-9, 1.755e-6, 1.759e-6, 3.566e-9, 1.616e-6, 1.504e-6, -1.125e-7, 1.777e-6, 1.640e-6, -1.376e-7, 1.526e-6, 1.397e-6, -1.283e-7, 1.643e-6, 1.495e-6, -1.482e-7
0.776, 1.684e-6, 1.773e-6, 8.880e-8, 1.800e-6, 1.885e-6, 8.526e-8, 1.556e-6, 1.621e-6, 6.471e-8, 1.647e-6, 1.712e-6, 6.545e-8, 1.543e-6, 1.482e-6, -6.087e-8, 1.689e-6, 1.610e-6, -7.863e-8, 1.464e-6, 1.384e-6, -7.974e-8, 1.568e-6, 1.475e-6, -9.265e-8
0.772, 1.586e-6, 1.728e-6, 1.418e-7, 1.688e-6, 1.832e-6, 1.433e-7, 1.470e-6, 1.582e-6, 1.123e-7, 1.547e-6, 1.665e-6, 1.181e-7, 1.477e-6, 1.460e-6, -1.657e-8, 1.607e-6, 1.580e-6, -2.725e-8, 1.406e-6, 1.369e-6, -3.723e-8, 1.499e-6, 1.454e-6, -4.466e-8
0.768, 1.497e-6, 1.681e-6, 1.847e-7, 1.587e-6, 1.777e-6, 1.901e-7, 1.391e-6, 1.542e-6, 1.514e-7, 1.456e-6, 1.617e-6, 1.608e-7, 1.414e-6, 1.435e-6, 2.113e-8, 1.533e-6, 1.548e-6, 1.500e-8, 1.352e-6, 1.351e-6, -1.109e-9, 1.435e-6, 1.431e-6, -4.120e-9
0.764, 1.415e-6, 1.636e-6, 2.206e-7, 1.497e-6, 1.725e-6, 2.281e-7, 1.319e-6, 1.502e-6, 1.831e-7, 1.376e-6, 1.570e-6, 1.947e-7, 1.358e-6, 1.410e-6, 5.243e-8, 1.465e-6, 1.516e-6, 5.046e-8, 1.303e-6, 1.333e-6, 2.946e-8, 1.378e-6, 1.407e-6, 2.974e-8
0.760, 1.342e-6, 1.592e-6, 2.493e-7, 1.416e-6, 1.674e-6, 2.585e-7, 1.254e-6, 1.463e-6, 2.090e-7, 1.302e-6, 1.524e-6, 2.224e-7, 1.305e-6, 1.385e-6, 7.939e-8, 1.405e-6, 1.485e-6, 7.957e-8, 1.258e-6, 1.313e-6, 5.557e-8, 1.325e-6, 1.383e-6, 5.821e-8
0.756, 1.275e-6, 1.547e-6, 2.720e-7, 1.342e-6, 1.624e-6, 2.828e-7, 1.193e-6, 1.423e-6, 2.295e-7, 1.235e-6, 1.479e-6, 2.442e-7, 1.257e-6, 1.358e-6, 1.015e-7, 1.349e-6, 1.452e-6, 1.031e-7, 1.215e-6, 1.292e-6, 7.699e-8, 1.275e-6, 1.357e-6, 8.196e-8
0.752, 1.215e-6, 1.505e-6, 2.903e-7, 1.276e-6, 1.577e-6, 3.009e-7, 1.138e-6, 1.384e-6, 2.454e-7, 1.176e-6, 1.436e-6, 2.603e-7, 1.213e-6, 1.333e-6, 1.193e-7, 1.298e-6, 1.422e-6, 1.233e-7, 1.176e-6, 1.271e-6, 9.489e-8, 1.232e-6, 1.333e-6, 1.011e-7
0.748, 1.161e-6, 1.464e-6, 3.027e-7, 1.218e-6, 1.532e-6, 3.135e-7, 1.089e-6, 1.346e-6, 2.569e-7, 1.122e-6, 1.394e-6, 2.718e-7, 1.173e-6, 1.306e-6, 1.329e-7, 1.253e-6, 1.391e-6, 1.380e-7, 1.140e-6, 1.249e-6, 1.087e-7, 1.192e-6, 1.307e-6, 1.151e-7
0.744, 1.113e-6, 1.425e-6, 3.121e-7, 1.165e-6, 1.488e-6, 3.231e-7, 1.044e-6, 1.310e-6, 2.660e-7, 1.073e-6, 1.353e-6, 2.800e-7, 1.135e-6, 1.280e-6, 1.446e-7, 1.211e-6, 1.360e-6, 1.491e-7, 1.106e-6, 1.226e-6, 1.202e-7, 1.154e-6, 1.281e-6, 1.274e-7
0.740, 1.069e-6, 1.387e-6, 3.178e-7, 1.119e-6, 1.447e-6, 3.289e-7, 1.004e-6, 1.275e-6, 2.702e-7, 1.031e-6, 1.315e-6, 2.847e-7, 1.102e-6, 1.254e-6, 1.520e-7, 1.174e-6, 1.331e-6, 1.576e-7, 1.076e-6, 1.204e-6, 1.285e-7, 1.121e-6, 1.257e-6, 1.360e-7
0.736, 1.030e-6, 1.351e-6, 3.210e-7, 1.077e-6, 1.409e-6, 3.314e-7, 9.674e-7, 1.241e-6, 2.732e-7, 9.909e-7, 1.278e-6, 2.875e-7, 1.071e-6, 1.229e-6, 1.579e-7, 1.140e-6, 1.303e-6, 1.630e-7, 1.048e-6, 1.183e-6, 1.349e-7, 1.090e-6, 1.232e-6, 1.424e-7
0.732, 9.959e-7, 1.317e-6, 3.212e-7, 1.041e-6, 1.372e-6, 3.313e-7, 9.342e-7, 1.208e-6, 2.734e-7, 9.576e-7, 1.244e-6, 2.863e-7, 1.043e-6, 1.205e-6, 1.617e-7, 1.109e-6, 1.276e-6, 1.664e-7, 1.021e-6, 1.160e-6, 1.389e-7, 1.064e-6, 1.209e-6, 1.452e-7
0.728, 9.645e-7, 1.285e-6, 3.206e-7, 1.008e-6, 1.338e-6, 3.295e-7, 9.047e-7, 1.177e-6, 2.721e-7, 9.273e-7, 1.211e-6, 2.840e-7, 1.018e-6, 1.181e-6, 1.633e-7, 1.082e-6, 1.250e-6, 1.677e-7, 9.985e-7, 1.139e-6, 1.410e-7, 1.038e-6, 1.186e-6, 1.478e-7
0.724, 9.352e-7, 1.253e-6, 3.175e-7, 9.785e-7, 1.304e-6, 3.256e-7, 8.781e-7, 1.147e-6, 2.688e-7, 8.988e-7, 1.179e-6, 2.806e-7, 9.944e-7, 1.158e-6, 1.636e-7, 1.057e-6, 1.225e-6, 1.677e-7, 9.758e-7, 1.118e-6, 1.419e-7, 1.014e-6, 1.162e-6, 1.485e-7
0.720, 9.091e-7, 1.222e-6, 3.129e-7, 9.516e-7, 1.272e-6, 3.206e-7, 8.531e-7, 1.118e-6, 2.648e-7, 8.732e-7, 1.149e-6, 2.755e-7, 9.721e-7, 1.135e-6, 1.631e-7, 1.035e-6, 1.201e-6, 1.660e-7, 9.561e-7, 1.097e-6, 1.412e-7, 9.939e-7, 1.141e-6, 1.470e-7
0.716, 8.849e-7, 1.192e-6, 3.073e-7, 9.268e-7, 1.241e-6, 3.138e-7, 8.299e-7, 1.090e-6, 2.600e-7, 8.510e-7, 1.120e-6, 2.692e-7, 9.523e-7, 1.113e-6, 1.607e-7, 1.015e-6, 1.178e-6, 1.631e-7, 9.378e-7, 1.077e-6, 1.394e-7, 9.744e-7, 1.119e-6, 1.451e-7
0.712, 8.612e-7, 1.162e-6, 3.008e-7, 9.030e-7, 1.210e-6, 3.066e-7, 8.083e-7, 1.062e-6, 2.539e-7, 8.289e-7, 1.091e-6, 2.624e-7, 9.337e-7, 1.091e-6, 1.576e-7, 9.963e-7, 1.156e-6, 1.594e-7, 9.202e-7, 1.057e-6, 1.372e-7, 9.569e-7, 1.099e-6, 1.420e-7
0.708, 8.373e-7, 1.131e-6, 2.941e-7, 8.790e-7, 1.178e-6, 2.990e-7, 7.876e-7, 1.035e-6, 2.474e-7, 8.077e-7, 1.063e-6, 2.553e-7, 9.163e-7, 1.070e-6, 1.539e-7, 9.781e-7, 1.134e-6, 1.555e-7, 9.027e-7, 1.037e-6, 1.345e-7, 9.406e-7, 1.079e-6, 1.385e-7
0.704, 8.161e-7, 1.102e-6, 2.860e-7, 8.566e-7, 1.146e-6, 2.898e-7, 7.686e-7, 1.009e-6, 2.400e-7, 7.884e-7, 1.035e-6, 2.471e-7, 8.993e-7, 1.049e-6, 1.498e-7, 9.623e-7, 1.112e-6, 1.500e-7, 8.880e-7, 1.018e-6, 1.302e-7, 9.254e-7, 1.059e-6, 1.340e-7
0.700, 7.934e-7, 1.071e-6, 2.777e-7, 8.340e-7, 1.115e-6, 2.810e-7, 7.489e-7, 9.817e-7, 2.327e-7, 7.691e-7, 1.007e-6, 2.382e-7, 8.830e-7, 1.028e-6, 1.452e-7, 9.463e-7, 1.091e-6, 1.446e-7, 8.725e-7, 9.985e-7, 1.260e-7, 9.104e-7, 1.040e-6, 1.293e-7
0.696, 7.718e-7, 1.041e-6, 2.692e-7, 8.118e-7, 1.083e-6, 2.712e-7, 7.299e-7, 9.552e-7, 2.253e-7, 7.495e-7, 9.798e-7, 2.303e-7, 8.674e-7, 1.008e-6, 1.403e-7, 9.299e-7, 1.069e-6, 1.393e-7, 8.569e-7, 9.790e-7, 1.221e-7, 8.963e-7, 1.021e-6, 1.243e-7
0.692, 7.506e-7, 1.011e-6, 2.607e-7, 7.897e-7, 1.052e-6, 2.620e-7, 7.122e-7, 9.296e-7, 2.174e-7, 7.305e-7, 9.521e-7, 2.216e-7, 8.513e-7, 9.862e-7, 1.348e-7, 9.151e-7, 1.048e-6, 1.331e-7, 8.421e-7, 9.592e-7, 1.172e-7, 8.819e-7, 1.000e-6, 1.183e-7
0.688, 7.311e-7, 9.836e-7, 2.525e-7, 7.692e-7, 1.022e-6, 2.530e-7, 6.931e-7, 9.033e-7, 2.102e-7, 7.124e-7, 9.257e-7, 2.132e-7, 8.359e-7, 9.656e-7, 1.298e-7, 8.996e-7, 1.027e-6, 1.269e-7, 8.281e-7, 9.405e-7, 1.124e-7, 8.675e-7, 9.807e-7, 1.132e-7
0.684, 7.122e-7, 9.563e-7, 2.441e-7, 7.498e-7, 9.932e-7, 2.434e-7, 6.766e-7, 8.792e-7, 2.026e-7, 6.944e-7, 8.993e-7, 2.049e-7, 8.208e-7, 9.448e-7, 1.240e-7, 8.842e-7, 1.005e-6, 1.205e-7, 8.138e-7, 9.212e-7, 1.074e-7, 8.533e-7, 9.603e-7, 1.070e-7
0.680, 6.953e-7, 9.309e-7, 2.357e-7, 7.328e-7, 9.668e-7, 2.341e-7, 6.600e-7, 8.552e-7, 1.952e-7, 6.776e-7, 8.747e-7, 1.971e-7, 8.064e-7, 9.249e-7, 1.185e-7, 8.701e-7, 9.840e-7, 1.139e-7, 8.009e-7, 9.028e-7, 1.018e-7, 8.398e-7, 9.411e-7, 1.014e-7
0.676, 6.796e-7, 9.071e-7, 2.275e-7, 7.172e-7, 9.420e-7, 2.249e-7, 6.445e-7, 8.325e-7, 1.880e-7, 6.625e-7, 8.510e-7, 1.885e-7, 7.914e-7, 9.046e-7, 1.131e-7, 8.548e-7, 9.627e-7, 1.079e-7, 7.866e-7, 8.835e-7, 9.696e-8, 8.259e-7, 9.218e-7, 9.587e-8
0.672, 6.652e-7, 8.855e-7, 2.203e-7, 7.030e-7, 9.199e-7, 2.169e-7, 6.300e-7, 8.115e-7, 1.815e-7, 6.480e-7, 8.289e-7, 1.810e-7, 7.784e-7, 8.863e-7, 1.079e-7, 8.405e-7, 9.429e-7, 1.024e-7, 7.737e-7, 8.658e-7, 9.219e-8, 8.127e-7, 9.031e-7, 9.033e-8
0.668, 6.537e-7, 8.659e-7, 2.122e-7, 6.912e-7, 8.994e-7, 2.082e-7, 6.171e-7, 7.917e-7, 1.746e-7, 6.350e-7, 8.085e-7, 1.735e-7, 7.651e-7, 8.677e-7, 1.025e-7, 8.282e-7, 9.240e-7, 9.574e-8, 7.612e-7, 8.481e-7, 8.690e-8, 8.011e-7, 8.851e-7, 8.396e-8
0.664, 6.427e-7, 8.480e-7, 2.053e-7, 6.811e-7, 8.822e-7, 2.011e-7, 6.051e-7, 7.739e-7, 1.688e-7, 6.236e-7, 7.904e-7, 1.667e-7, 7.536e-7, 8.513e-7, 9.772e-8, 8.155e-7, 9.061e-7, 9.064e-8, 7.503e-7, 8.327e-7, 8.241e-8, 7.895e-7, 8.684e-7, 7.893e-8
0.660, 6.327e-7, 8.314e-7, 1.987e-7, 6.712e-7, 8.654e-7, 1.942e-7, 5.932e-7, 7.567e-7, 1.634e-7, 6.126e-7, 7.731e-7, 1.605e-7, 7.410e-7, 8.347e-7, 9.368e-8, 8.042e-7, 8.891e-7, 8.486e-8, 7.382e-7, 8.164e-7, 7.821e-8, 7.778e-7, 8.518e-7, 7.398e-8
0.656, 6.238e-7, 8.168e-7, 1.929e-7, 6.631e-7, 8.509e-7, 1.878e-7, 5.836e-7, 7.418e-7, 1.582e-7, 6.026e-7, 7.577e-7, 1.551e-7, 7.313e-7, 8.201e-7, 8.880e-8, 7.936e-7, 8.736e-7, 8.002e-8, 7.278e-7, 8.019e-7, 7.415e-8, 7.676e-7, 8.369e-7, 6.927e-8
0.652, 6.149e-7, 8.023e-7, 1.874e-7, 6.550e-7, 8.361e-7, 1.811e-7, 5.743e-7, 7.272e-7, 1.529e-7, 5.931e-7, 7.427e-7, 1.496e-7, 7.212e-7, 8.058e-7, 8.463e-8, 7.826e-7, 8.575e-7, 7.490e-8, 7.176e-7, 7.877e-7, 7.007e-8, 7.574e-7, 8.218e-7, 6.433e-8
0.648, 6.069e-7, 7.888e-7, 1.819e-7, 6.477e-7, 8.233e-7, 1.756e-7, 5.654e-7, 7.139e-7, 1.485e-7, 5.843e-7, 7.292e-7, 1.450e-7, 7.120e-7, 7.926e-7, 8.068e-8, 7.732e-7, 8.437e-7, 7.047e-8, 7.089e-7, 7.750e-7, 6.616e-8, 7.484e-7, 8.083e-7, 5.999e-8
0.644, 5.988e-7, 7.758e-7, 1.769e-7, 6.387e-7, 8.098e-7, 1.710e-7, 5.558e-7, 7.007e-7, 1.449e-7, 5.750e-7, 7.160e-7, 1.410e-7, 7.023e-7, 7.795e-7, 7.717e-8, 7.634e-7, 8.303e-7, 6.689e-8, 6.999e-7, 7.624e-7, 6.250e-8, 7.399e-7, 7.957e-7, 5.584e-8
0.640, 5.905e-7, 7.632e-7, 1.727e-7, 6.313e-7, 7.969e-7, 1.657e-7, 5.478e-7, 6.890e-7, 1.412e-7, 5.668e-7, 7.034e-7, 1.366e-7, 6.943e-7, 7.677e-7, 7.339e-8, 7.555e-7, 8.178e-7, 6.230e-8, 6.926e-7, 7.510e-7, 5.832e-8, 7.324e-7, 7.837e-7, 5.131e-8
0.636, 5.807e-7, 7.496e-7, 1.690e-7, 6.222e-7, 7.840e-7, 1.618e-7, 5.384e-7, 6.768e-7, 1.385e-7, 5.564e-7, 6.903e-7, 1.339e-7, 6.861e-7, 7.564e-7, 7.023e-8, 7.462e-7, 8.049e-7, 5.876e-8, 6.843e-7, 7.398e-7, 5.552e-8, 7.245e-7, 7.720e-7, 4.751e-8
0.632, 5.731e-7, 7.382e-7, 1.651e-7, 6.130e-7, 7.711e-7, 1.580e-7, 5.306e-7, 6.661e-7, 1.354e-7, 5.476e-7, 6.786e-7, 1.310e-7, 6.780e-7, 7.446e-7, 6.665e-8, 7.387e-7, 7.939e-7, 5.523e-8, 6.762e-7, 7.285e-7, 5.229e-8, 7.170e-7, 7.603e-7, 4.332e-8
0.628, 5.655e-7, 7.271e-7, 1.616e-7, 6.054e-7, 7.597e-7, 1.543e-7, 5.232e-7, 6.555e-7, 1.323e-7, 5.405e-7, 6.683e-7, 1.278e-7, 6.714e-7, 7.350e-7, 6.359e-8, 7.317e-7, 7.829e-7, 5.122e-8, 6.700e-7, 7.187e-7, 4.875e-8, 7.111e-7, 7.505e-7, 3.937e-8
0.624, 5.576e-7, 7.164e-7, 1.588e-7, 5.977e-7, 7.485e-7, 1.507e-7, 5.156e-7, 6.456e-7, 1.300e-7, 5.319e-7, 6.577e-7, 1.258e-7, 6.637e-7, 7.246e-7, 6.088e-8, 7.241e-7, 7.721e-7, 4.798e-8, 6.626e-7, 7.088e-7, 4.615e-8, 7.044e-7, 7.406e-7, 3.616e-8
0.620, 5.523e-7, 7.081e-7, 1.558e-7, 5.910e-7, 7.391e-7, 1.481e-7, 5.095e-7, 6.373e-7, 1.278e-7, 5.250e-7, 6.483e-7, 1.233e-7, 6.583e-7, 7.163e-7, 5.798e-8, 7.186e-7, 7.629e-7, 4.430e-8, 6.575e-7, 7.004e-7, 4.282e-8, 6.993e-7, 7.318e-7, 3.255e-8
0.616, 5.456e-7, 6.990e-7, 1.534e-7, 5.845e-7, 7.293e-7, 1.448e-7, 5.033e-7, 6.289e-7, 1.256e-7, 5.189e-7, 6.400e-7, 1.211e-7, 6.515e-7, 7.069e-7, 5.543e-8, 7.117e-7, 7.531e-7, 4.138e-8, 6.508e-7, 6.912e-7, 4.046e-8, 6.935e-7, 7.224e-7, 2.883e-8
0.612, 5.397e-7, 6.906e-7, 1.509e-7, 5.784e-7, 7.207e-7, 1.423e-7, 4.970e-7, 6.207e-7, 1.237e-7, 5.124e-7, 6.314e-7, 1.189e-7, 6.464e-7, 6.989e-7, 5.249e-8, 7.069e-7, 7.449e-7, 3.793e-8, 6.461e-7, 6.834e-7, 3.729e-8, 6.886e-7, 7.140e-7, 2.542e-8
0.608, 5.346e-7, 6.830e-7, 1.483e-7, 5.727e-7, 7.128e-7, 1.400e-7, 4.917e-7, 6.133e-7, 1.216e-7, 5.073e-7, 6.241e-7, 1.168e-7, 6.423e-7, 6.914e-7, 4.912e-8, 7.018e-7, 7.365e-7, 3.466e-8, 6.417e-7, 6.762e-7, 3.450e-8, 6.850e-7, 7.068e-7, 2.178e-8
0.604, 5.298e-7, 6.761e-7, 1.462e-7, 5.667e-7, 7.046e-7, 1.379e-7, 4.864e-7, 6.062e-7, 1.199e-7, 5.019e-7, 6.173e-7, 1.154e-7, 6.376e-7, 6.842e-7, 4.656e-8, 6.972e-7, 7.291e-7, 3.190e-8, 6.366e-7, 6.686e-7, 3.206e-8, 6.807e-7, 6.993e-7, 1.851e-8
0.600, 5.257e-7, 6.698e-7, 1.441e-7, 5.618e-7, 6.978e-7, 1.360e-7, 4.813e-7, 5.997e-7, 1.184e-7, 4.973e-7, 6.103e-7, 1.130e-7, 6.335e-7, 6.779e-7, 4.439e-8, 6.935e-7, 7.219e-7, 2.845e-8, 6.325e-7, 6.621e-7, 2.959e-8, 6.770e-7, 6.928e-7, 1.584e-8
0.596, 5.217e-7, 6.631e-7, 1.414e-7, 5.568e-7, 6.906e-7, 1.338e-7, 4.776e-7, 5.937e-7, 1.160e-7, 4.927e-7, 6.043e-7, 1.116e-7, 6.291e-7, 6.709e-7, 4.174e-8, 6.905e-7, 7.154e-7, 2.493e-8, 6.293e-7, 6.561e-7, 2.687e-8, 6.737e-7, 6.860e-7, 1.229e-8
0.592, 5.184e-7, 6.577e-7, 1.392e-7, 5.528e-7, 6.846e-7, 1.318e-7, 4.737e-7, 5.879e-7, 1.142e-7, 4.885e-7, 5.979e-7, 1.094e-7, 6.260e-7, 6.651e-7, 3.910e-8, 6.875e-7, 7.096e-7, 2.212e-8, 6.257e-7, 6.500e-7, 2.429e-8, 6.709e-7, 6.805e-7, 9.668e-9
0.588, 5.146e-7, 6.521e-7, 1.375e-7, 5.500e-7, 6.792e-7, 1.292e-7, 4.703e-7, 5.823e-7, 1.119e-7, 4.858e-7, 5.930e-7, 1.072e-7, 6.241e-7, 6.602e-7, 3.610e-8, 6.851e-7, 7.039e-7, 1.884e-8, 6.234e-7, 6.450e-7, 2.161e-8, 6.693e-7, 6.750e-7, 5.701e-9
0.584, 5.129e-7, 6.473e-7, 1.344e-7, 5.457e-7, 6.731e-7, 1.274e-7, 4.674e-7, 5.772e-7, 1.098e-7, 4.822e-7, 5.872e-7, 1.050e-7, 6.215e-7, 6.547e-7, 3.318e-8, 6.834e-7, 6.988e-7, 1.539e-8, 6.211e-7, 6.396e-7, 1.849e-8, 6.669e-7, 6.695e-7, 2.631e-9
0.580, 5.105e-7, 6.423e-7, 1.318e-7, 5.434e-7, 6.681e-7, 1.248e-7, 4.638e-7, 5.715e-7, 1.078e-7, 4.802e-7, 5.825e-7, 1.023e-7, 6.197e-7, 6.498e-7, 3.011e-8, 6.809e-7, 6.930e-7, 1.216e-8, 6.189e-7, 6.349e-7, 1.596e-8, 6.662e-7, 6.654e-7, -8.037e-10
0.576, 5.070e-7, 6.368e-7, 1.298e-7, 5.402e-7, 6.625e-7, 1.224e-7, 4.604e-7, 5.667e-7, 1.063e-7, 4.773e-7, 5.780e-7, 1.006e-7, 6.172e-7, 6.449e-7, 2.772e-8, 6.794e-7, 6.884e-7, 8.981e-9, 6.168e-7, 6.306e-7, 1.376e-8, 6.640e-7, 6.605e-7, -3.471e-9
0.572, 5.056e-7, 6.327e-7, 1.271e-7, 5.381e-7, 6.576e-7, 1.195e-7, 4.580e-7, 5.616e-7, 1.036e-7, 4.744e-7, 5.726e-7, 9.821e-8, 6.162e-7, 6.409e-7, 2.470e-8, 6.788e-7, 6.844e-7, 5.615e-9, 6.161e-7, 6.265e-7, 1.036e-8, 6.638e-7, 6.568e-7, -7.053e-9
0.568, 5.023e-7, 6.274e-7, 1.251e-7, 5.348e-7, 6.520e-7, 1.172e-7, 4.545e-7, 5.565e-7, 1.020e-7, 4.714e-7, 5.678e-7, 9.636e-8, 6.144e-7, 6.367e-7, 2.226e-8, 6.761e-7, 6.791e-7, 2.948e-9, 6.136e-7, 6.221e-7, 8.467e-9, 6.616e-7, 6.521e-7, -9.503e-9
0.564, 4.997e-7, 6.218e-7, 1.221e-7, 5.315e-7, 6.461e-7, 1.146e-7, 4.514e-7, 5.511e-7, 9.974e-8, 4.683e-7, 5.624e-7, 9.413e-8, 6.127e-7, 6.319e-7, 1.916e-8, 6.755e-7, 6.748e-7, -6.636e-10, 6.129e-7, 6.181e-7, 5.160e-9, 6.608e-7, 6.480e-7, -1.282e-8
0.560, 4.973e-7, 6.173e-7, 1.200e-7, 5.293e-7, 6.414e-7, 1.121e-7, 4.487e-7, 5.464e-7, 9.776e-8, 4.654e-7, 5.576e-7, 9.222e-8, 6.115e-7, 6.279e-7, 1.646e-8, 6.746e-7, 6.708e-7, -3.754e-9, 6.115e-7, 6.141e-7, 2.641e-9, 6.605e-7, 6.448e-7, -1.566e-8
0.556, 4.945e-7, 6.119e-7, 1.174e-7, 5.257e-7, 6.353e-7, 1.096e-7, 4.454e-7, 5.408e-7, 9.537e-8, 4.630e-7, 5.525e-7, 8.953e-8, 6.097e-7, 6.234e-7, 1.376e-8, 6.724e-7, 6.664e-7, -5.929e-9, 6.100e-7, 6.101e-7, 1.703e-10, 6.599e-7, 6.410e-7, -1.896e-8
0.552, 4.911e-7, 6.062e-7, 1.151e-7, 5.227e-7, 6.301e-7, 1.074e-7, 4.424e-7, 5.355e-7, 9.317e-8, 4.601e-7, 5.471e-7, 8.703e-8, 6.088e-7, 6.192e-7, 1.047e-8, 6.715e-7, 6.619e-7, -9.619e-9, 6.093e-7, 6.067e-7, -2.654e-9, 6.581e-7, 6.369e-7, -2.122e-8
0.548, 4.878e-7, 6.008e-7, 1.129e-7, 5.196e-7, 6.242e-7, 1.046e-7, 4.392e-7, 5.303e-7, 9.109e-8, 4.561e-7, 5.413e-7, 8.529e-8, 6.076e-7, 6.158e-7, 8.181e-9, 6.696e-7, 6.577e-7, -1.191e-8, 6.080e-7, 6.034e-7, -4.681e-9, 6.580e-7, 6.338e-7, -2.417e-8
0.544, 4.842e-7, 5.941e-7, 1.100e-7, 5.153e-7, 6.174e-7, 1.021e-7, 4.356e-7, 5.243e-7, 8.870e-8, 4.522e-7, 5.354e-7, 8.313e-8, 6.052e-7, 6.106e-7, 5.396e-9, 6.677e-7, 6.526e-7, -1.507e-8, 6.063e-7, 5.989e-7, -7.358e-9, 6.568e-7, 6.296e-7, -2.721e-8
0.540, 4.788e-7, 5.870e-7, 1.082e-7, 5.114e-7, 6.111e-7, 9.974e-8, 4.307e-7, 5.177e-7, 8.708e-8, 4.473e-7, 5.286e-7, 8.134e-8, 6.025e-7, 6.057e-7, 3.231e-9, 6.649e-7, 6.477e-7, -1.716e-8, 6.046e-7, 5.945e-7, -1.004e-8, 6.554e-7, 6.260e-7, -2.942e-8
0.536, 4.751e-7, 5.811e-7, 1.060e-7, 5.065e-7, 6.043e-7, 9.777e-8, 4.278e-7, 5.124e-7, 8.468e-8, 4.447e-7, 5.233e-7, 7.866e-8, 6.011e-7, 6.020e-7, 9.475e-10, 6.647e-7, 6.441e-7, -2.058e-8, 6.036e-7, 5.914e-7, -1.227e-8, 6.550e-7, 6.225e-7, -3.253e-8
0.532, 4.704e-7, 5.744e-7, 1.041e-7, 5.025e-7, 5.980e-7, 9.545e-8, 4.237e-7, 5.063e-7, 8.259e-8, 4.406e-7, 5.173e-7, 7.672e-8, 5.991e-7, 5.973e-7, -1.847e-9, 6.629e-7, 6.398e-7, -2.301e-8, 6.015e-7, 5.873e-7, -1.425e-8, 6.534e-7, 6.188e-7, -3.463e-8
0.528, 4.664e-7, 5.679e-7, 1.015e-7, 4.990e-7, 5.913e-7, 9.224e-8, 4.198e-7, 5.005e-7, 8.067e-8, 4.364e-7, 5.113e-7, 7.490e-8, 5.970e-7, 5.930e-7, -4.003e-9, 6.605e-7, 6.353e-7, -2.523e-8, 6.003e-7, 5.833e-7, -1.700e-8, 6.531e-7, 6.159e-7, -3.725e-8
0.524, 4.616e-7, 5.612e-7, 9.954e-8, 4.941e-7, 5.841e-7, 9.002e-8, 4.160e-7, 4.943e-7, 7.828e-8, 4.323e-7, 5.050e-7, 7.267e-8, 5.952e-7, 5.885e-7, -6.729e-9, 6.594e-7, 6.314e-7, -2.793e-8, 5.987e-7, 5.799e-7, -1.877e-8, 6.519e-7, 6.119e-7, -4.005e-8
0.520, 4.576e-7, 5.548e-7, 9.721e-8, 4.903e-7, 5.780e-7, 8.771e-8, 4.120e-7, 4.889e-7, 7.690e-8, 4.286e-7, 4.996e-7, 7.100e-8, 5.935e-7, 5.847e-7, -8.707e-9, 6.575e-7, 6.275e-7, -2.996e-8, 5.978e-7, 5.764e-7, -2.135e-8, 6.505e-7, 6.087e-7, -4.184e-8
0.516, 4.533e-7, 5.480e-7, 9.475e-8, 4.864e-7, 5.713e-7, 8.494e-8, 4.093e-7, 4.832e-7, 7.390e-8, 4.253e-7, 4.938e-7, 6.854e-8, 5.918e-7, 5.803e-7, -1.154e-8, 6.563e-7, 6.234e-7, -3.289e-8, 5.959e-7, 5.727e-7, -2.316e-8, 6.507e-7, 6.056e-7, -4.513e-8
0.512, 4.501e-7, 5.423e-7, 9.224e-8, 4.835e-7, 5.661e-7, 8.261e-8, 4.059e-7, 4.779e-7, 7.201e-8, 4.235e-7, 4.891e-7, 6.567e-8, 5.913e-7, 5.772e-7, -1.411e-8, 6.556e-7, 6.199e-7, -3.576e-8, 5.950e-7, 5.692e-7, -2.581e-8, 6.499e-7, 6.027e-7, -4.719e-8
0.508, 4.460e-7, 5.367e-7, 9.065e-8, 4.790e-7, 5.603e-7, 8.128e-8, 4.026e-7, 4.733e-7, 7.071e-8, 4.200e-7, 4.841e-7, 6.418e-8, 5.891e-7, 5.736e-7, -1.552e-8, 6.537e-7, 6.166e-7, -3.717e-8, 5.935e-7, 5.663e-7, -2.718e-8, 6.484e-7, 6.001e-7, -4.833e-8
0.504, 4.430e-7, 5.303e-7, 8.732e-8, 4.767e-7, 5.540e-7, 7.733e-8, 4.005e-7, 4.677e-7, 6.722e-8, 4.171e-7, 4.784e-7, 6.130e-8, 5.881e-7, 5.695e-7, -1.857e-8, 6.524e-7, 6.122e-7, -4.020e-8, 5.925e-7, 5.625e-7, -3.000e-8, 6.478e-7, 5.961e-7, -5.162e-8
0.500, 4.405e-7, 5.255e-7, 8.502e-8, 4.738e-7, 5.489e-7, 7.508e-8, 3.984e-7, 4.632e-7, 6.474e-8, 4.154e-7, 4.738e-7, 5.842e-8, 5.872e-7, 5.662e-7, -2.100e-8, 6.521e-7, 6.092e-7, -4.290e-8, 5.913e-7, 5.594e-7, -3.198e-8, 6.476e-7, 5.937e-7, -5.391e-8
0.496, 4.374e-7, 5.204e-7, 8.298e-8, 4.716e-7, 5.442e-7, 7.265e-8, 3.961e-7, 4.590e-7, 6.293e-8, 4.129e-7, 4.697e-7, 5.673e-8, 5.864e-7, 5.632e-7, -2.321e-8, 6.512e-7, 6.061e-7, -4.513e-8, 5.904e-7, 5.564e-7, -3.396e-8, 6.472e-7, 5.911e-7, -5.604e-8
0.492, 4.347e-7, 5.155e-7, 8.078e-8, 4.690e-7, 5.393e-7, 7.036e-8, 3.933e-7, 4.541e-7, 6.073e-8, 4.105e-7, 4.652e-7, 5.465e-8, 5.842e-7, 5.594e-7, -2.477e-8, 6.493e-7, 6.024e-7, -4.696e-8, 5.890e-7, 5.532e-7, -3.573e-8, 6.456e-7, 5.881e-7, -5.746e-8
0.488, 4.336e-7, 5.107e-7, 7.715e-8, 4.680e-7, 5.349e-7, 6.688e-8, 3.930e-7, 4.509e-7, 5.795e-8, 4.098e-7, 4.611e-7, 5.134e-8, 5.841e-7, 5.563e-7, -2.780e-8, 6.488e-7, 5.990e-7, -4.984e-8, 5.885e-7, 5.502e-7, -3.826e-8, 6.454e-7, 5.854e-7, -6.006e-8
0.484, 4.320e-7, 5.068e-7, 7.474e-8, 4.665e-7, 5.305e-7, 6.392e-8, 3.914e-7, 4.467e-7, 5.522e-8, 4.084e-7, 4.573e-7, 4.885e-8, 5.831e-7, 5.528e-7, -3.021e-8, 6.479e-7, 5.958e-7, -5.209e-8, 5.874e-7, 5.467e-7, -4.068e-8, 6.449e-7, 5.826e-7, -6.229e-8
0.480, 4.297e-7, 5.021e-7, 7.238e-8, 4.655e-7, 5.269e-7, 6.141e-8, 3.905e-7, 4.432e-7, 5.276e-8, 4.082e-7, 4.544e-7, 4.622e-8, 5.821e-7, 5.501e-7, -3.208e-8, 6.471e-7, 5.929e-7, -5.418e-8, 5.857e-7, 5.440e-7, -4.169e-8, 6.443e-7, 5.801e-7, -6.417e-8
0.476, 4.288e-7, 4.984e-7, 6.960e-8, 4.646e-7, 5.227e-7, 5.810e-8, 3.884e-7, 4.392e-7, 5.083e-8, 4.065e-7, 4.503e-7, 4.376e-8, 5.808e-7, 5.466e-7, -3.419e-8, 6.458e-7, 5.895e-7, -5.631e-8, 5.849e-7, 5.409e-7, -4.399e-8, 6.434e-7, 5.770e-7, -6.646e-8
0.472, 4.262e-7, 4.944e-7, 6.823e-8, 4.629e-7, 5.192e-7, 5.628e-8, 3.877e-7, 4.360e-7, 4.834e-8, 4.056e-7, 4.474e-7, 4.180e-8, 5.802e-7, 5.438e-7, -3.635e-8, 6.437e-7, 5.861e-7, -5.761e-8, 5.835e-7, 5.382e-7, -4.521e-8, 6.422e-7, 5.744e-7, -6.776e-8
0.468, 4.262e-7, 4.913e-7, 6.511e-8, 4.628e-7, 5.159e-7, 5.315e-8, 3.876e-7, 4.332e-7, 4.565e-8, 4.053e-7, 4.444e-7, 3.912e-8, 5.793e-7, 5.409e-7, -3.841e-8, 6.439e-7, 5.837e-7, -6.018e-8, 5.826e-7, 5.354e-7, -4.727e-8, 6.412e-7, 5.715e-7, -6.975e-8
0.464, 4.253e-7, 4.879e-7, 6.257e-8, 4.631e-7, 5.131e-7, 5.005e-8, 3.862e-7, 4.301e-7, 4.389e-8, 4.046e-7, 4.411e-7, 3.656e-8, 5.774e-7, 5.374e-7, -3.992e-8, 6.414e-7, 5.800e-7, -6.139e-8, 5.812e-7, 5.321e-7, -4.909e-8, 6.394e-7, 5.684e-7, -7.106e-8
0.460, 4.245e-7, 4.840e-7, 5.956e-8, 4.619e-7, 5.093e-7, 4.745e-8, 3.850e-7, 4.261e-7, 4.110e-8, 4.038e-7, 4.377e-7, 3.394e-8, 5.775e-7, 5.349e-7, -4.261e-8, 6.406e-7, 5.767e-7, -6.394e-8, 5.804e-7, 5.297e-7, -5.074e-8, 6.381e-7, 5.651e-7, -7.304e-8
0.456, 4.235e-7, 4.809e-7, 5.738e-8, 4.614e-7, 5.064e-7, 4.497e-8, 3.850e-7, 4.234e-7, 3.843e-8, 4.035e-7, 4.350e-7, 3.156e-8, 5.759e-7, 5.315e-7, -4.435e-8, 6.395e-7, 5.733e-7, -6.615e-8, 5.791e-7, 5.264e-7, -5.272e-8, 6.370e-7, 5.623e-7, -7.470e-8
0.452, 4.207e-7, 4.765e-7, 5.584e-8, 4.594e-7, 5.024e-7, 4.299e-8, 3.827e-7, 4.198e-7, 3.717e-8, 4.017e-7, 4.315e-7, 2.984e-8, 5.736e-7, 5.283e-7, -4.535e-8, 6.356e-7, 5.690e-7, -6.655e-8, 5.765e-7, 5.229e-7, -5.365e-8, 6.341e-7, 5.585e-7, -7.553e-8
0.448, 4.215e-7, 4.738e-7, 5.233e-8, 4.597e-7, 4.994e-7, 3.969e-8, 3.823e-7, 4.169e-7, 3.452e-8, 4.020e-7, 4.287e-7, 2.671e-8, 5.728e-7, 5.251e-7, -4.769e-8, 6.347e-7, 5.659e-7, -6.887e-8, 5.760e-7, 5.201e-7, -5.595e-8, 6.335e-7, 5.557e-7, -7.783e-8
0.444, 4.202e-7, 4.710e-7, 5.080e-8, 4.581e-7, 4.959e-7, 3.777e-8, 3.811e-7, 4.137e-7, 3.258e-8, 4.006e-7, 4.255e-7, 2.487e-8, 5.708e-7, 5.219e-7, -4.894e-8, 6.326e-7, 5.626e-7, -6.996e-8, 5.737e-7, 5.170e-7, -5.668e-8, 6.314e-7, 5.525e-7, -7.889e-8
0.440, 4.189e-7, 4.673e-7, 4.843e-8, 4.575e-7, 4.928e-7, 3.539e-8, 3.801e-7, 4.109e-7, 3.073e-8, 3.990e-7, 4.222e-7, 2.316e-8, 5.691e-7, 5.192e-7, -4.993e-8, 6.295e-7, 5.589e-7, -7.061e-8, 5.720e-7, 5.142e-7, -5.783e-8, 6.290e-7, 5.497e-7, -7.927e-8
0.436, 4.180e-7, 4.646e-7, 4.658e-8, 4.558e-7, 4.897e-7, 3.389e-8, 3.790e-7, 4.080e-7, 2.898e-8, 3.988e-7, 4.199e-7, 2.118e-8, 5.669e-7, 5.158e-7, -5.111e-8, 6.275e-7, 5.553e-7, -7.221e-8, 5.703e-7, 5.112e-7, -5.913e-8, 6.269e-7, 5.462e-7, -8.069e-8
0.432, 4.170e-7, 4.614e-7, 4.441e-8, 4.554e-7, 4.866e-7, 3.115e-8, 3.779e-7, 4.048e-7, 2.690e-8, 3.977e-7, 4.171e-7, 1.933e-8, 5.655e-7, 5.131e-7, -5.241e-8, 6.257e-7, 5.523e-7, -7.339e-8, 5.687e-7, 5.086e-7, -6.018e-8, 6.252e-7, 5.431e-7, -8.202e-8
0.428, 4.150e-7, 4.575e-7, 4.254e-8, 4.539e-7, 4.833e-7, 2.936e-8, 3.766e-7, 4.016e-7, 2.501e-8, 3.963e-7, 4.136e-7, 1.727e-8, 5.635e-7, 5.096e-7, -5.389e-8, 6.226e-7, 5.485e-7, -7.407e-8, 5.668e-7, 5.051e-7, -6.173e-8, 6.228e-7, 5.397e-7, -8.313e-8
0.424, 4.142e-7, 4.551e-7, 4.097e-8, 4.524e-7, 4.800e-7, 2.760e-8, 3.751e-7, 3.987e-7, 2.358e-8, 3.953e-7, 4.111e-7, 1.574e-8, 5.619e-7, 5.072e-7, -5.466e-8, 6.206e-7, 5.455e-7, -7.514e-8, 5.652e-7, 5.027e-7, -6.254e-8, 6.205e-7, 5.373e-7, -8.315e-8
0.420, 4.124e-7, 4.512e-7, 3.886e-8, 4.509e-7, 4.766e-7, 2.570e-8, 3.733e-7, 3.957e-7, 2.240e-8, 3.939e-7, 4.079e-7, 1.398e-8, 5.592e-7, 5.040e-7, -5.524e-8, 6.171e-7, 5.417e-7, -7.543e-8, 5.628e-7, 4.996e-7, -6.321e-8, 6.179e-7, 5.337e-7, -8.425e-8
0.416, 4.107e-7, 4.481e-7, 3.748e-8, 4.493e-7, 4.728e-7, 2.352e-8, 3.718e-7, 3.926e-7, 2.078e-8, 3.935e-7, 4.056e-7, 1.208e-8, 5.575e-7, 5.008e-7, -5.669e-8, 6.145e-7, 5.379e-7, -7.662e-8, 5.609e-7, 4.969e-7, -6.400e-8, 6.153e-7, 5.303e-7, -8.500e-8
0.412, 4.078e-7, 4.443e-7, 3.643e-8, 4.466e-7, 4.693e-7, 2.274e-8, 3.692e-7, 3.892e-7, 1.998e-8, 3.906e-7, 4.020e-7, 1.139e-8, 5.545e-7, 4.978e-7, -5.671e-8, 6.107e-7, 5.344e-7, -7.634e-8, 5.583e-7, 4.939e-7, -6.441e-8, 6.118e-7, 5.272e-7, -8.467e-8
0.408, 4.082e-7, 4.422e-7, 3.399e-8, 4.463e-7, 4.668e-7, 2.050e-8, 3.693e-7, 3.873e-7, 1.801e-8, 3.898e-7, 3.992e-7, 9.382e-9, 5.534e-7, 4.954e-7, -5.797e-8, 6.092e-7, 5.319e-7, -7.730e-8, 5.580e-7, 4.923e-7, -6.569e-8, 6.111e-7, 5.249e-7, -8.622e-8
0.404, 4.057e-7, 4.393e-7, 3.365e-8, 4.436e-7, 4.637e-7, 2.019e-8, 3.669e-7, 3.849e-7, 1.799e-8, 3.880e-7, 3.967e-7, 8.752e-9, 5.513e-7, 4.932e-7, -5.804e-8, 6.061e-7, 5.289e-7, -7.723e-8, 5.556e-7, 4.901e-7, -6.551e-8, 6.082e-7, 5.223e-7, -8.590e-8
0.400, 4.048e-7, 4.369e-7, 3.212e-8, 4.421e-7, 4.610e-7, 1.891e-8, 3.663e-7, 3.829e-7, 1.667e-8, 3.872e-7, 3.949e-7, 7.669e-9, 5.503e-7, 4.914e-7, -5.893e-8, 6.048e-7, 5.266e-7, -7.815e-8, 5.551e-7, 4.886e-7, -6.650e-8, 6.066e-7, 5.203e-7, -8.636e-8
0.396, 4.041e-7, 4.351e-7, 3.097e-8, 4.413e-7, 4.592e-7, 1.790e-8, 3.662e-7, 3.817e-7, 1.545e-8, 3.867e-7, 3.930e-7, 6.242e-9, 5.498e-7, 4.902e-7, -5.952e-8, 6.034e-7, 5.249e-7, -7.855e-8, 5.540e-7, 4.870e-7, -6.706e-8, 6.053e-7, 5.182e-7, -8.713e-8
0.392, 4.035e-7, 4.345e-7, 3.101e-8, 4.405e-7, 4.578e-7, 1.731e-8, 3.657e-7, 3.805e-7, 1.475e-8, 3.862e-7, 3.920e-7, 5.799e-9, 5.499e-7, 4.901e-7, -5.981e-8, 6.022e-7, 5.237e-7, -7.851e-8, 5.544e-7, 4.865e-7, -6.786e-8, 6.045e-7, 5.173e-7, -8.712e-8
0.388, 4.054e-7, 4.352e-7, 2.985e-8, 4.410e-7, 4.578e-7, 1.675e-8, 3.666e-7, 3.807e-7, 1.413e-8, 3.862e-7, 3.915e-7, 5.288e-9, 5.506e-7, 4.903e-7, -6.037e-8, 6.026e-7, 5.238e-7, -7.878e-8, 5.554e-7, 4.873e-7, -6.801e-8, 6.044e-7, 5.169e-7, -8.747e-8
0.384, 4.063e-7, 4.355e-7, 2.918e-8, 4.405e-7, 4.571e-7, 1.662e-8, 3.681e-7, 3.811e-7, 1.304e-8, 3.860e-7, 3.906e-7, 4.559e-9, 5.513e-7, 4.903e-7, -6.107e-8, 6.027e-7, 5.235e-7, -7.916e-8, 5.557e-7, 4.868e-7, -6.895e-8, 6.043e-7, 5.166e-7, -8.771e-8
0.380, 4.097e-7, 4.374e-7, 2.772e-8, 4.440e-7, 4.585e-7, 1.450e-8, 3.709e-7, 3.823e-7, 1.137e-8, 3.879e-7, 3.912e-7, 3.280e-9, 5.550e-7, 4.919e-7, -6.304e-8, 6.043e-7, 5.242e-7, -8.008e-8, 5.592e-7, 4.885e-7, -7.070e-8, 6.065e-7, 5.171e-7, -8.941e-8
0.376, 4.133e-7, 4.401e-7, 2.678e-8, 4.457e-7, 4.602e-7, 1.459e-8, 3.728e-7, 3.839e-7, 1.110e-8, 3.896e-7, 3.921e-7, 2.463e-9, 5.573e-7, 4.936e-7, -6.371e-8, 6.064e-7, 5.253e-7, -8.113e-8, 5.614e-7, 4.898e-7, -7.167e-8, 6.080e-7, 5.181e-7, -8.995e-8
0.372, 4.179e-7, 4.432e-7, 2.537e-8, 4.497e-7, 4.628e-7, 1.315e-8, 3.770e-7, 3.861e-7, 9.136e-9, 3.918e-7, 3.933e-7, 1.528e-9, 5.618e-7, 4.964e-7, -6.544e-8, 6.094e-7, 5.275e-7, -8.192e-8, 5.654e-7, 4.921e-7, -7.322e-8, 6.106e-7, 5.197e-7, -9.088e-8
0.368, 4.235e-7, 4.469e-7, 2.342e-8, 4.540e-7, 4.653e-7, 1.124e-8, 3.809e-7, 3.883e-7, 7.345e-9, 3.946e-7, 3.947e-7, 8.160e-11, 5.653e-7, 4.986e-7, -6.664e-8, 6.135e-7, 5.297e-7, -8.385e-8, 5.689e-7, 4.945e-7, -7.446e-8, 6.141e-7, 5.218e-7, -9.227e-8
0.364, 4.314e-7, 4.523e-7, 2.082e-8, 4.594e-7, 4.688e-7, 9.441e-9, 3.869e-7, 3.922e-7, 5.338e-9, 3.992e-7, 3.980e-7, -1.217e-9, 5.716e-7, 5.031e-7, -6.855e-8, 6.191e-7, 5.336e-7, -8.555e-8, 5.753e-7, 4.987e-7, -7.664e-8, 6.192e-7, 5.252e-7, -9.407e-8
0.360, 4.383e-7, 4.562e-7, 1.792e-8, 4.649e-7, 4.720e-7, 7.089e-9, 3.922e-7, 3.953e-7, 3.054e-9, 4.039e-7, 3.998e-7, -4.052e-9, 5.780e-7, 5.066e-7, -7.138e-8, 6.251e-7, 5.368e-7, -8.825e-8, 5.812e-7, 5.023e-7, -7.893e-8, 6.246e-7, 5.285e-7, -9.614e-8
0.356, 4.461e-7, 4.606e-7, 1.443e-8, 4.709e-7, 4.745e-7, 3.536e-9, 3.976e-7, 3.979e-7, 2.889e-10, 4.078e-7, 4.020e-7, -5.813e-9, 5.843e-7, 5.101e-7, -7.421e-8, 6.297e-7, 5.395e-7, -9.017e-8, 5.864e-7, 5.052e-7, -8.125e-8, 6.303e-7, 5.317e-7, -9.851e-8
0.352, 4.545e-7, 4.649e-7, 1.041e-8, 4.776e-7, 4.775e-7, -5.595e-11, 4.041e-7, 4.014e-7, -2.723e-9, 4.126e-7, 4.044e-7, -8.195e-9, 5.915e-7, 5.143e-7, -7.718e-8, 6.375e-7, 5.440e-7, -9.354e-8, 5.940e-7, 5.095e-7, -8.450e-8, 6.361e-7, 5.349e-7, -1.012e-7
0.348, 4.633e-7, 4.691e-7, 5.751e-9, 4.833e-7, 4.800e-7, -3.372e-9, 4.105e-7, 4.045e-7, -5.990e-9, 4.175e-7, 4.066e-7, -1.086e-8, 5.978e-7, 5.179e-7, -7.986e-8, 6.431e-7, 5.468e-7, -9.633e-8, 6.005e-7, 5.132e-7, -8.734e-8, 6.421e-7, 5.378e-7, -1.043e-7
0.344, 4.703e-7, 4.723e-7, 1.982e-9, 4.890e-7, 4.822e-7, -6.856e-9, 4.168e-7, 4.079e-7, -8.903e-9, 4.220e-7, 4.089e-7, -1.307e-8, 6.048e-7, 5.216e-7, -8.319e-8, 6.506e-7, 5.510e-7, -9.959e-8, 6.078e-7, 5.177e-7, -9.008e-8, 6.480e-7, 5.414e-7, -1.066e-7
0.340, 4.779e-7, 4.751e-7, -2.811e-9, 4.933e-7, 4.833e-7, -1.008e-8, 4.230e-7, 4.105e-7, -1.251e-8, 4.269e-7, 4.106e-7, -1.622e-8, 6.115e-7, 5.250e-7, -8.646e-8, 6.569e-7, 5.539e-7, -1.030e-7, 6.144e-7, 5.206e-7, -9.381e-8, 6.543e-7, 5.441e-7, -1.103e-7
0.336, 4.823e-7, 4.764e-7, -5.871e-9, 4.956e-7, 4.839e-7, -1.174e-8, 4.269e-7, 4.123e-7, -1.460e-8, 4.291e-7, 4.114e-7, -1.775e-8, 6.166e-7, 5.274e-7, -8.914e-8, 6.603e-7, 5.552e-7, -1.051e-7, 6.189e-7, 5.230e-7, -9.593e-8, 6.582e-7, 5.460e-7, -1.122e-7
0.332, 4.876e-7, 4.788e-7, -8.863e-9, 4.983e-7, 4.849e-7, -1.341e-8, 4.320e-7, 4.147e-7, -1.727e-8, 4.314e-7, 4.126e-7, -1.874e-8, 6.220e-7, 5.302e-7, -9.178e-8, 6.653e-7, 5.575e-7, -1.078e-7, 6.242e-7, 5.258e-7, -9.839e-8, 6.625e-7, 5.479e-7, -1.146e-7
0.328, 4.896e-7, 4.786e-7, -1.101e-8, 4.982e-7, 4.835e-7, -1.463e-8, 4.348e-7, 4.155e-7, -1.929e-8, 4.334e-7, 4.131e-7, -2.031e-8, 6.264e-7, 5.318e-7, -9.455e-8, 6.683e-7, 5.584e-7, -1.099e-7, 6.280e-7, 5.268e-7, -1.012e-7, 6.648e-7, 5.484e-7, -1.164e-7
0.324, 4.900e-7, 4.786e-7, -1.143e-8, 4.962e-7, 4.827e-7, -1.358e-8, 4.362e-7, 4.164e-7, -1.983e-8, 4.336e-7, 4.134e-7, -2.022e-8, 6.273e-7, 5.325e-7, -9.487e-8, 6.696e-7, 5.590e-7, -1.106e-7, 6.296e-7, 5.274e-7, -1.023e-7, 6.662e-7, 5.487e-7, -1.175e-7
0.320, 4.902e-7, 4.786e-7, -1.156e-8, 4.947e-7, 4.818e-7, -1.298e-8, 4.382e-7, 4.172e-7, -2.100e-8, 4.338e-7, 4.141e-7, -1.976e-8, 6.287e-7, 5.329e-7, -9.579e-8, 6.704e-7, 5.595e-7, -1.109e-7, 6.312e-7, 5.282e-7, -1.030e-7, 6.671e-7, 5.486e-7, -1.184e-7
0.316, 4.896e-7, 4.775e-7, -1.207e-8, 4.925e-7, 4.806e-7, -1.185e-8, 4.395e-7, 4.179e-7, -2.154e-8, 4.347e-7, 4.138e-7, -2.088e-8, 6.302e-7, 5.331e-7, -9.700e-8, 6.710e-7, 5.591e-7, -1.119e-7, 6.325e-7, 5.282e-7, -1.043e-7, 6.667e-7, 5.481e-7, -1.186e-7
0.312, 4.870e-7, 4.764e-7, -1.068e-8, 4.889e-7, 4.787e-7, -1.015e-8, 4.389e-7, 4.177e-7, -2.116e-8, 4.333e-7, 4.135e-7, -1.985e-8, 6.291e-7, 5.326e-7, -9.652e-8, 6.696e-7, 5.583e-7, -1.113e-7, 6.316e-7, 5.273e-7, -1.043e-7, 6.654e-7, 5.468e-7, -1.186e-7
0.308, 4.837e-7, 4.744e-7, -9.257e-9, 4.846e-7, 4.766e-7, -7.978e-9, 4.373e-7, 4.171e-7, -2.024e-8, 4.316e-7, 4.132e-7, -1.833e-8, 6.269e-7, 5.312e-7, -9.565e-8, 6.673e-7, 5.568e-7, -1.105e-7, 6.292e-7, 5.261e-7, -1.031e-7, 6.619e-7, 5.445e-7, -1.174e-7
0.304, 4.800e-7, 4.730e-7, -7.013e-9, 4.808e-7, 4.751e-7, -5.764e-9, 4.371e-7, 4.173e-7, -1.979e-8, 4.301e-7, 4.128e-7, -1.733e-8, 6.247e-7, 5.303e-7, -9.442e-8, 6.651e-7, 5.557e-7, -1.094e-7, 6.272e-7, 5.248e-7, -1.025e-7, 6.597e-7, 5.435e-7, -1.163e-7
0.300, 4.752e-7, 4.702e-7, -5.094e-9, 4.765e-7, 4.732e-7, -3.294e-9, 4.342e-7, 4.155e-7, -1.871e-8, 4.280e-7, 4.114e-7, -1.653e-8, 6.212e-7, 5.277e-7, -9.355e-8, 6.605e-7, 5.528e-7, -1.078e-7, 6.235e-7, 5.222e-7, -1.013e-7, 6.550e-7, 5.404e-7, -1.146e-7
0.296, 4.710e-7, 4.679e-7, -3.145e-9, 4.726e-7, 4.711e-7, -1.532e-9, 4.325e-7, 4.146e-7, -1.789e-8, 4.267e-7, 4.111e-7, -1.563e-8, 6.174e-7, 5.257e-7, -9.172e-8, 6.570e-7, 5.507e-7, -1.063e-7, 6.195e-7, 5.202e-7, -9.931e-8, 6.502e-7, 5.373e-7, -1.129e-7
0.292, 4.659e-7, 4.647e-7, -1.157e-9, 4.677e-7, 4.674e-7, -2.922e-10, 4.289e-7, 4.119e-7, -1.697e-8, 4.230e-7, 4.083e-7, -1.478e-8, 6.127e-7, 5.221e-7, -9.057e-8, 6.518e-7, 5.470e-7, -1.048e-7, 6.143e-7, 5.158e-7, -9.850e-8, 6.449e-7, 5.336e-7, -1.113e-7
0.288, 4.614e-7, 4.621e-7, 7.420e-10, 4.639e-7, 4.658e-7, 1.843e-9, 4.269e-7, 4.107e-7, -1.618e-8, 4.210e-7, 4.073e-7, -1.376e-8, 6.078e-7, 5.192e-7, -8.862e-8, 6.471e-7, 5.440e-7, -1.031e-7, 6.095e-7, 5.128e-7, -9.664e-8, 6.403e-7, 5.305e-7, -1.098e-7
0.284, 4.551e-7, 4.592e-7, 4.118e-9, 4.591e-7, 4.635e-7, 4.402e-9, 4.228e-7, 4.088e-7, -1.396e-8, 4.178e-7, 4.058e-7, -1.202e-8, 6.018e-7, 5.160e-7, -8.580e-8, 6.417e-7, 5.411e-7, -1.005e-7, 6.030e-7, 5.098e-7, -9.321e-8, 6.340e-7, 5.273e-7, -1.067e-7
0.280, 4.503e-7, 4.553e-7, 5.082e-9, 4.545e-7, 4.601e-7, 5.544e-9, 4.188e-7, 4.053e-7, -1.349e-8, 4.146e-7, 4.029e-7, -1.164e-8, 5.961e-7, 5.115e-7, -8.465e-8, 6.364e-7, 5.371e-7, -9.927e-8, 5.975e-7, 5.053e-7, -9.215e-8, 6.277e-7, 5.224e-7, -1.053e-7
0.276, 4.451e-7, 4.518e-7, 6.666e-9, 4.505e-7, 4.573e-7, 6.833e-9, 4.136e-7, 4.017e-7, -1.193e-8, 4.105e-7, 4.000e-7, -1.046e-8, 5.900e-7, 5.075e-7, -8.245e-8, 6.296e-7, 5.323e-7, -9.723e-8, 5.909e-7, 5.011e-7, -8.976e-8, 6.209e-7, 5.181e-7, -1.028e-7
0.272, 4.390e-7, 4.479e-7, 8.959e-9, 4.456e-7, 4.544e-7, 8.841e-9, 4.093e-7, 3.990e-7, -1.030e-8, 4.059e-7, 3.972e-7, -8.697e-9, 5.828e-7, 5.029e-7, -7.987e-8, 6.230e-7, 5.288e-7, -9.421e-8, 5.842e-7, 4.968e-7, -8.739e-8, 6.141e-7, 5.138e-7, -1.003e-7
0.268, 4.330e-7, 4.444e-7, 1.134e-8, 4.407e-7, 4.510e-7, 1.024e-8, 4.039e-7, 3.951e-7, -8.765e-9, 4.011e-7, 3.937e-7, -7.398e-9, 5.756e-7, 4.983e-7, -7.726e-8, 6.167e-7, 5.245e-7, -9.219e-8, 5.772e-7, 4.924e-7, -8.487e-8, 6.072e-7, 5.094e-7, -9.784e-8
0.264, 4.282e-7, 4.405e-7, 1.222e-8, 4.370e-7, 4.479e-7, 1.085e-8, 3.994e-7, 3.915e-7, -7.889e-9, 3.970e-7, 3.906e-7, -6.473e-9, 5.693e-7, 4.936e-7, -7.570e-8, 6.112e-7, 5.205e-7, -9.068e-8, 5.713e-7, 4.880e-7, -8.325e-8, 6.015e-7, 5.052e-7, -9.631e-8
0.260, 4.218e-7, 4.361e-7, 1.427e-8, 4.324e-7, 4.444e-7, 1.207e-8, 3.930e-7, 3.871e-7, -5.921e-9, 3.909e-7, 3.861e-7, -4.810e-9, 5.615e-7, 4.888e-7, -7.274e-8, 6.030e-7, 5.149e-7, -8.805e-8, 5.630e-7, 4.824e-7, -8.058e-8, 5.932e-7, 4.999e-7, -9.327e-8
0.256, 4.165e-7, 4.321e-7, 1.560e-8, 4.270e-7, 4.406e-7, 1.355e-8, 3.874e-7, 3.827e-7, -4.681e-9, 3.862e-7, 3.829e-7, -3.343e-9, 5.547e-7, 4.841e-7, -7.064e-8, 5.962e-7, 5.104e-7, -8.574e-8, 5.566e-7, 4.780e-7, -7.854e-8, 5.873e-7, 4.959e-7, -9.144e-8
0.252, 4.108e-7, 4.279e-7, 1.709e-8, 4.226e-7, 4.374e-7, 1.477e-8, 3.820e-7, 3.784e-7, -3.539e-9, 3.805e-7, 3.785e-7, -1.985e-9, 5.474e-7, 4.789e-7, -6.845e-8, 5.890e-7, 5.054e-7, -8.366e-8, 5.498e-7, 4.734e-7, -7.641e-8, 5.801e-7, 4.909e-7, -8.916e-8
0.248, 4.052e-7, 4.231e-7, 1.790e-8, 4.183e-7, 4.335e-7, 1.520e-8, 3.764e-7, 3.739e-7, -2.545e-9, 3.760e-7, 3.743e-7, -1.621e-9, 5.409e-7, 4.738e-7, -6.709e-8, 5.825e-7, 5.000e-7, -8.253e-8, 5.429e-7, 4.681e-7, -7.478e-8, 5.737e-7, 4.858e-7, -8.786e-8
0.244, 3.994e-7, 4.196e-7, 2.014e-8, 4.135e-7, 4.302e-7, 1.674e-8, 3.704e-7, 3.699e-7, -4.198e-10, 3.692e-7, 3.702e-7, 9.770e-10, 5.335e-7, 4.688e-7, -6.468e-8, 5.752e-7, 4.954e-7, -7.972e-8, 5.355e-7, 4.632e-7, -7.230e-8, 5.668e-7, 4.811e-7, -8.572e-8
0.240, 3.945e-7, 4.152e-7, 2.075e-8, 4.097e-7, 4.270e-7, 1.725e-8, 3.657e-7, 3.660e-7, 3.183e-10, 3.647e-7, 3.660e-7, 1.312e-9, 5.266e-7, 4.640e-7, -6.264e-8, 5.686e-7, 4.908e-7, -7.781e-8, 5.292e-7, 4.587e-7, -7.051e-8, 5.603e-7, 4.768e-7, -8.349e-8
0.236, 3.893e-7, 4.115e-7, 2.224e-8, 4.043e-7, 4.234e-7, 1.910e-8, 3.598e-7, 3.619e-7, 2.080e-9, 3.590e-7, 3.624e-7, 3.477e-9, 5.196e-7, 4.592e-7, -6.041e-8, 5.614e-7, 4.862e-7, -7.518e-8, 5.225e-7, 4.538e-7, -6.873e-8, 5.532e-7, 4.722e-7, -8.102e-8
0.232, 3.841e-7, 4.076e-7, 2.348e-8, 4.010e-7, 4.202e-7, 1.924e-8, 3.553e-7, 3.582e-7, 2.907e-9, 3.537e-7, 3.582e-7, 4.500e-9, 5.130e-7, 4.544e-7, -5.866e-8, 5.546e-7, 4.814e-7, -7.323e-8, 5.157e-7, 4.492e-7, -6.656e-8, 5.463e-7, 4.671e-7, -7.913e-8
0.228, 3.785e-7, 4.024e-7, 2.386e-8, 3.951e-7, 4.157e-7, 2.063e-8, 3.495e-7, 3.534e-7, 3.881e-9, 3.484e-7, 3.542e-7, 5.799e-9, 5.063e-7, 4.493e-7, -5.703e-8, 5.479e-7, 4.761e-7, -7.185e-8, 5.088e-7, 4.437e-7, -6.512e-8, 5.404e-7, 4.622e-7, -7.819e-8
0.224, 3.728e-7, 3.982e-7, 2.535e-8, 3.899e-7, 4.115e-7, 2.169e-8, 3.439e-7, 3.495e-7, 5.593e-9, 3.428e-7, 3.496e-7, 6.872e-9, 4.994e-7, 4.445e-7, -5.490e-8, 5.396e-7, 4.705e-7, -6.914e-8, 5.013e-7, 4.386e-7, -6.268e-8, 5.326e-7, 4.572e-7, -7.541e-8
0.220, 3.676e-7, 3.938e-7, 2.620e-8, 3.848e-7, 4.077e-7, 2.292e-8, 3.391e-7, 3.453e-7, 6.253e-9, 3.380e-7, 3.459e-7, 7.827e-9, 4.929e-7, 4.397e-7, -5.325e-8, 5.334e-7, 4.662e-7, -6.726e-8, 4.959e-7, 4.345e-7, -6.138e-8, 5.269e-7, 4.530e-7, -7.393e-8
0.216, 3.635e-7, 3.897e-7, 2.618e-8, 3.801e-7, 4.034e-7, 2.322e-8, 3.342e-7, 3.413e-7, 7.050e-9, 3.333e-7, 3.419e-7, 8.545e-9, 4.869e-7, 4.346e-7, -5.230e-8, 5.263e-7, 4.605e-7, -6.582e-8, 4.890e-7, 4.293e-7, -5.978e-8, 5.205e-7, 4.478e-7, -7.269e-8
0.212, 3.566e-7, 3.846e-7, 2.804e-8, 3.754e-7, 3.993e-7, 2.383e-8, 3.284e-7, 3.367e-7, 8.339e-9, 3.272e-7, 3.375e-7, 1.024e-8, 4.789e-7, 4.291e-7, -4.984e-8, 5.189e-7, 4.555e-7, -6.340e-8, 4.817e-7, 4.243e-7, -5.738e-8, 5.127e-7, 4.426e-7, -7.008e-8
0.208, 3.518e-7, 3.807e-7, 2.887e-8, 3.691e-7, 3.948e-7, 2.572e-8, 3.235e-7, 3.333e-7, 9.815e-9, 3.219e-7, 3.336e-7, 1.165e-8, 4.732e-7, 4.251e-7, -4.813e-8, 5.121e-7, 4.512e-7, -6.097e-8, 4.750e-7, 4.197e-7, -5.534e-8, 5.061e-7, 4.387e-7, -6.740e-8
0.204, 3.464e-7, 3.755e-7, 2.911e-8, 3.642e-7, 3.901e-7, 2.593e-8, 3.180e-7, 3.284e-7, 1.044e-8, 3.172e-7, 3.294e-7, 1.216e-8, 4.668e-7, 4.200e-7, -4.678e-8, 5.056e-7, 4.457e-7, -5.994e-8, 4.685e-7, 4.145e-7, -5.397e-8, 4.999e-7, 4.335e-7, -6.633e-8
0.200, 3.400e-7, 3.703e-7, 3.024e-8, 3.580e-7, 3.852e-7, 2.717e-8, 3.123e-7, 3.242e-7, 1.192e-8, 3.111e-7, 3.246e-7, 1.349e-8, 4.599e-7, 4.149e-7, -4.499e-8, 4.982e-7, 4.405e-7, -5.768e-8, 4.618e-7, 4.094e-7, -5.236e-8, 4.932e-7, 4.288e-7, -6.436e-8
0.196, 3.350e-7, 3.657e-7, 3.080e-8, 3.530e-7, 3.808e-7, 2.780e-8, 3.079e-7, 3.202e-7, 1.228e-8, 3.077e-7, 3.214e-7, 1.368e-8, 4.536e-7, 4.102e-7, -4.340e-8, 4.927e-7, 4.360e-7, -5.666e-8, 4.560e-7, 4.049e-7, -5.108e-8, 4.874e-7, 4.240e-7, -6.341e-8
0.192, 3.283e-7, 3.601e-7, 3.185e-8, 3.461e-7, 3.751e-7, 2.901e-8, 3.028e-7, 3.156e-7, 1.275e-8, 3.019e-7, 3.166e-7, 1.469e-8, 4.474e-7, 4.051e-7, -4.234e-8, 4.858e-7, 4.309e-7, -5.486e-8, 4.497e-7, 4.000e-7, -4.972e-8, 4.813e-7, 4.194e-7, -6.189e-8
0.188, 3.221e-7, 3.554e-7, 3.335e-8, 3.404e-7, 3.700e-7, 2.958e-8, 2.975e-7, 3.113e-7, 1.379e-8, 2.973e-7, 3.127e-7, 1.538e-8, 4.411e-7, 3.999e-7, -4.120e-8, 4.793e-7, 4.259e-7, -5.344e-8, 4.427e-7, 3.950e-7, -4.771e-8, 4.747e-7, 4.141e-7, -6.059e-8
0.184, 3.163e-7, 3.499e-7, 3.361e-8, 3.328e-7, 3.643e-7, 3.150e-8, 2.917e-7, 3.065e-7, 1.483e-8, 2.913e-7, 3.081e-7, 1.679e-8, 4.354e-7, 3.956e-7, -3.980e-8, 4.727e-7, 4.211e-7, -5.162e-8, 4.364e-7, 3.901e-7, -4.637e-8, 4.683e-7, 4.096e-7, -5.876e-8
0.180, 3.097e-7, 3.452e-7, 3.543e-8, 3.269e-7, 3.596e-7, 3.271e-8, 2.872e-7, 3.029e-7, 1.571e-8, 2.867e-7, 3.047e-7, 1.801e-8, 4.289e-7, 3.909e-7, -3.800e-8, 4.665e-7, 4.165e-7, -5.001e-8, 4.301e-7, 3.855e-7, -4.459e-8, 4.621e-7, 4.055e-7, -5.665e-8
0.176, 3.033e-7, 3.398e-7, 3.653e-8, 3.208e-7, 3.544e-7, 3.365e-8, 2.816e-7, 2.982e-7, 1.660e-8, 2.810e-7, 2.998e-7, 1.876e-8, 4.228e-7, 3.861e-7, -3.670e-8, 4.605e-7, 4.118e-7, -4.873e-8, 4.244e-7, 3.808e-7, -4.364e-8, 4.563e-7, 4.010e-7, -5.534e-8
0.172, 2.979e-7, 3.355e-7, 3.758e-8, 3.149e-7, 3.500e-7, 3.513e-8, 2.776e-7, 2.948e-7, 1.725e-8, 2.762e-7, 2.957e-7, 1.955e-8, 4.177e-7, 3.820e-7, -3.570e-8, 4.551e-7, 4.076e-7, -4.751e-8, 4.190e-7, 3.766e-7, -4.232e-8, 4.517e-7, 3.971e-7, -5.452e-8
0.168, 2.916e-7, 3.301e-7, 3.841e-8, 3.093e-7, 3.448e-7, 3.545e-8, 2.720e-7, 2.900e-7, 1.800e-8, 2.721e-7, 2.917e-7, 1.955e-8, 4.121e-7, 3.773e-7, -3.480e-8, 4.488e-7, 4.024e-7, -4.640e-8, 4.130e-7, 3.718e-7, -4.113e-8, 4.459e-7, 3.923e-7, -5.368e-8
0.164, 2.865e-7, 3.263e-7, 3.972e-8, 3.039e-7, 3.410e-7, 3.708e-8, 2.681e-7, 2.872e-7, 1.913e-8, 2.680e-7, 2.888e-7, 2.089e-8, 4.067e-7, 3.738e-7, -3.286e-8, 4.443e-7, 3.993e-7, -4.496e-8, 4.082e-7, 3.683e-7, -3.994e-8, 4.413e-7, 3.892e-7, -5.212e-8
0.160, 2.808e-7, 3.212e-7, 4.037e-8, 2.985e-7, 3.361e-7, 3.760e-8, 2.632e-7, 2.830e-7, 1.980e-8, 2.635e-7, 2.850e-7, 2.154e-8, 4.020e-7, 3.695e-7, -3.243e-8, 4.381e-7, 3.947e-7, -4.341e-8, 4.026e-7, 3.637e-7, -3.889e-8, 4.359e-7, 3.847e-7, -5.117e-8
0.156, 2.763e-7, 3.172e-7, 4.092e-8, 2.945e-7, 3.325e-7, 3.795e-8, 2.593e-7, 2.795e-7, 2.024e-8, 2.599e-7, 2.817e-7, 2.173e-8, 3.969e-7, 3.655e-7, -3.142e-8, 4.338e-7, 3.910e-7, -4.282e-8, 3.977e-7, 3.598e-7, -3.791e-8, 4.310e-7, 3.812e-7, -4.984e-8
0.152, 2.720e-7, 3.131e-7, 4.107e-8, 2.896e-7, 3.282e-7, 3.854e-8, 2.555e-7, 2.760e-7, 2.054e-8, 2.564e-7, 2.786e-7, 2.219e-8, 3.923e-7, 3.618e-7, -3.044e-8, 4.295e-7, 3.873e-7, -4.222e-8, 3.935e-7, 3.562e-7, -3.725e-8, 4.274e-7, 3.781e-7, -4.932e-8
0.148, 2.676e-7, 3.098e-7, 4.224e-8, 2.854e-7, 3.250e-7, 3.964e-8, 2.525e-7, 2.734e-7, 2.099e-8, 2.532e-7, 2.758e-7, 2.260e-8, 3.873e-7, 3.580e-7, -2.926e-8, 4.250e-7, 3.840e-7, -4.099e-8, 3.888e-7, 3.525e-7, -3.633e-8, 4.230e-7, 3.748e-7, -4.818e-8
0.144, 2.640e-7, 3.064e-7, 4.234e-8, 2.820e-7, 3.213e-7, 3.934e-8, 2.490e-7, 2.703e-7, 2.123e-8, 2.501e-7, 2.725e-7, 2.238e-8, 3.838e-7, 3.550e-7, -2.879e-8, 4.206e-7, 3.803e-7, -4.032e-8, 3.850e-7, 3.495e-7, -3.548e-8, 4.188e-7, 3.712e-7, -4.758e-8
0.140, 2.598e-7, 3.022e-7, 4.235e-8, 2.779e-7, 3.174e-7, 3.950e-8, 2.455e-7, 2.667e-7, 2.123e-8, 2.469e-7, 2.698e-7, 2.280e-8, 3.796e-7, 3.509e-7, -2.867e-8, 4.164e-7, 3.766e-7, -3.978e-8, 3.797e-7, 3.448e-7, -3.489e-8, 4.148e-7, 3.676e-7, -4.721e-8
0.136, 2.571e-7, 2.994e-7, 4.230e-8, 2.755e-7, 3.152e-7, 3.976e-8, 2.434e-7, 2.647e-7, 2.135e-8, 2.449e-7, 2.678e-7, 2.299e-8, 3.760e-7, 3.484e-7, -2.766e-8, 4.129e-7, 3.739e-7, -3.897e-8, 3.771e-7, 3.430e-7, -3.406e-8, 4.120e-7, 3.655e-7, -4.646e-8
0.132, 2.537e-7, 2.962e-7, 4.248e-8, 2.721e-7, 3.116e-7, 3.958e-8, 2.407e-7, 2.623e-7, 2.153e-8, 2.421e-7, 2.652e-7, 2.304e-8, 3.726e-7, 3.450e-7, -2.765e-8, 4.094e-7, 3.709e-7, -3.852e-8, 3.734e-7, 3.393e-7, -3.409e-8, 4.078e-7, 3.622e-7, -4.558e-8
0.128, 2.507e-7, 2.932e-7, 4.246e-8, 2.694e-7, 3.090e-7, 3.957e-8, 2.384e-7, 2.597e-7, 2.129e-8, 2.396e-7, 2.624e-7, 2.279e-8, 3.691e-7, 3.419e-7, -2.726e-8, 4.060e-7, 3.681e-7, -3.794e-8, 3.693e-7, 3.362e-7, -3.308e-8, 4.051e-7, 3.594e-7, -4.562e-8
0.124, 2.490e-7, 2.909e-7, 4.197e-8, 2.672e-7, 3.062e-7, 3.900e-8, 2.362e-7, 2.572e-7, 2.100e-8, 2.383e-7, 2.605e-7, 2.220e-8, 3.662e-7, 3.393e-7, -2.688e-8, 4.034e-7, 3.653e-7, -3.809e-8, 3.667e-7, 3.335e-7, -3.314e-8, 4.023e-7, 3.570e-7, -4.535e-8
0.120, 2.469e-7, 2.885e-7, 4.169e-8, 2.661e-7, 3.048e-7, 3.868e-8, 2.353e-7, 2.560e-7, 2.068e-8, 2.369e-7, 2.591e-7, 2.220e-8, 3.639e-7, 3.372e-7, -2.663e-8, 4.004e-7, 3.631e-7, -3.731e-8, 3.642e-7, 3.314e-7, -3.279e-8, 3.993e-7, 3.549e-7, -4.440e-8
0.116, 2.450e-7, 2.863e-7, 4.128e-8, 2.639e-7, 3.026e-7, 3.869e-8, 2.323e-7, 2.534e-7, 2.117e-8, 2.351e-7, 2.569e-7, 2.176e-8, 3.610e-7, 3.346e-7, -2.636e-8, 3.975e-7, 3.608e-7, -3.668e-8, 3.610e-7, 3.286e-7, -3.239e-8, 3.964e-7, 3.523e-7, -4.410e-8
0.112, 2.425e-7, 2.843e-7, 4.180e-8, 2.617e-7, 3.006e-7, 3.889e-8, 2.304e-7, 2.515e-7, 2.112e-8, 2.335e-7, 2.556e-7, 2.210e-8, 3.583e-7, 3.326e-7, -2.575e-8, 3.949e-7, 3.585e-7, -3.643e-8, 3.581e-7, 3.267e-7, -3.142e-8, 3.940e-7, 3.505e-7, -4.354e-8
0.108, 2.410e-7, 2.818e-7, 4.081e-8, 2.602e-7, 2.983e-7, 3.806e-8, 2.300e-7, 2.502e-7, 2.017e-8, 2.327e-7, 2.537e-7, 2.100e-8, 3.561e-7, 3.301e-7, -2.603e-8, 3.929e-7, 3.562e-7, -3.669e-8, 3.555e-7, 3.234e-7, -3.215e-8, 3.923e-7, 3.484e-7, -4.392e-8
0.104, 2.407e-7, 2.807e-7, 3.999e-8, 2.605e-7, 2.975e-7, 3.699e-8, 2.292e-7, 2.491e-7, 1.986e-8, 2.325e-7, 2.532e-7, 2.062e-8, 3.544e-7, 3.285e-7, -2.585e-8, 3.917e-7, 3.550e-7, -3.669e-8, 3.550e-7, 3.226e-7, -3.240e-8, 3.911e-7, 3.471e-7, -4.393e-8
0.100, 2.393e-7, 2.789e-7, 3.967e-8, 2.598e-7, 2.961e-7, 3.624e-8, 2.275e-7, 2.471e-7, 1.959e-8, 2.320e-7, 2.520e-7, 1.991e-8, 3.524e-7, 3.263e-7, -2.618e-8, 3.897e-7, 3.533e-7, -3.644e-8, 3.526e-7, 3.203e-7, -3.223e-8, 3.891e-7, 3.452e-7, -4.389e-8
0.096, 2.385e-7, 2.777e-7, 3.921e-8, 2.589e-7, 2.946e-7, 3.574e-8, 2.279e-7, 2.469e-7, 1.900e-8, 2.315e-7, 2.513e-7, 1.980e-8, 3.515e-7, 3.250e-7, -2.642e-8, 3.887e-7, 3.518e-7, -3.686e-8, 3.512e-7, 3.188e-7, -3.239e-8, 3.874e-7, 3.434e-7, -4.400e-8
0.092, 2.386e-7, 2.771e-7, 3.852e-8, 2.592e-7, 2.944e-7, 3.522e-8, 2.281e-7, 2.463e-7, 1.816e-8, 2.323e-7, 2.513e-7, 1.900e-8, 3.509e-7, 3.243e-7, -2.658e-8, 3.882e-7, 3.511e-7, -3.712e-8, 3.499e-7, 3.176e-7, -3.231e-8, 3.875e-7, 3.432e-7, -4.431e-8
0.088, 2.381e-7, 2.760e-7, 3.790e-8, 2.592e-7, 2.937e-7, 3.448e-8, 2.269e-7, 2.448e-7, 1.791e-8, 2.320e-7, 2.508e-7, 1.877e-8, 3.485e-7, 3.221e-7, -2.632e-8, 3.863e-7, 3.491e-7, -3.722e-8, 3.483e-7, 3.159e-7, -3.245e-8, 3.860e-7, 3.416e-7, -4.445e-8
0.084, 2.378e-7, 2.751e-7, 3.736e-8, 2.597e-7, 2.936e-7, 3.390e-8, 2.267e-7, 2.443e-7, 1.757e-8, 2.324e-7, 2.505e-7, 1.817e-8, 3.479e-7, 3.213e-7, -2.663e-8, 3.858e-7, 3.488e-7, -3.706e-8, 3.471e-7, 3.146e-7, -3.249e-8, 3.852e-7, 3.408e-7, -4.440e-8
0.080, 2.388e-7, 2.753e-7, 3.644e-8, 2.599e-7, 2.931e-7, 3.319e-8, 2.272e-7, 2.441e-7, 1.686e-8, 2.331e-7, 2.505e-7, 1.739e-8, 3.467e-7, 3.201e-7, -2.659e-8, 3.855e-7, 3.481e-7, -3.744e-8, 3.466e-7, 3.141e-7, -3.250e-8, 3.839e-7, 3.397e-7, -4.417e-8
0.076, 2.398e-7, 2.754e-7, 3.559e-8, 2.625e-7, 2.945e-7, 3.200e-8, 2.285e-7, 2.446e-7, 1.607e-8, 2.346e-7, 2.514e-7, 1.676e-8, 3.475e-7, 3.199e-7, -2.758e-8, 3.853e-7, 3.475e-7, -3.785e-8, 3.460e-7, 3.130e-7, -3.306e-8, 3.845e-7, 3.397e-7, -4.489e-8
0.072, 2.409e-7, 2.754e-7, 3.454e-8, 2.642e-7, 2.953e-7, 3.106e-8, 2.296e-7, 2.447e-7, 1.516e-8, 2.365e-7, 2.521e-7, 1.565e-8, 3.475e-7, 3.196e-7, -2.798e-8, 3.867e-7, 3.480e-7, -3.869e-8, 3.464e-7, 3.126e-7, -3.385e-8, 3.848e-7, 3.396e-7, -4.525e-8
0.068, 2.425e-7, 2.766e-7, 3.408e-8, 2.657e-7, 2.964e-7, 3.074e-8, 2.307e-7, 2.452e-7, 1.451e-8, 2.385e-7, 2.533e-7, 1.476e-8, 3.476e-7, 3.189e-7, -2.862e-8, 3.863e-7, 3.474e-7, -3.884e-8, 3.457e-7, 3.120e-7, -3.369e-8, 3.852e-7, 3.392e-7, -4.601e-8
0.064, 2.439e-7, 2.771e-7, 3.318e-8, 2.676e-7, 2.979e-7, 3.032e-8, 2.318e-7, 2.456e-7, 1.383e-8, 2.396e-7, 2.543e-7, 1.466e-8, 3.473e-7, 3.188e-7, -2.853e-8, 3.860e-7, 3.472e-7, -3.883e-8, 3.454e-7, 3.114e-7, -3.396e-8, 3.843e-7, 3.385e-7, -4.576e-8
0.060, 2.465e-7, 2.787e-7, 3.228e-8, 2.709e-7, 2.999e-7, 2.902e-8, 2.341e-7, 2.471e-7, 1.298e-8, 2.424e-7, 2.560e-7, 1.353e-8, 3.482e-7, 3.191e-7, -2.912e-8, 3.873e-7, 3.476e-7, -3.969e-8, 3.464e-7, 3.116e-7, -3.477e-8, 3.857e-7, 3.391e-7, -4.657e-8
0.056, 2.487e-7, 2.807e-7, 3.201e-8, 2.746e-7, 3.030e-7, 2.836e-8, 2.356e-7, 2.479e-7, 1.227e-8, 2.452e-7, 2.581e-7, 1.289e-8, 3.495e-7, 3.194e-7, -3.003e-8, 3.885e-7, 3.479e-7, -4.054e-8, 3.466e-7, 3.119e-7, -3.473e-8, 3.866e-7, 3.397e-7, -4.693e-8
0.052, 2.514e-7, 2.831e-7, 3.164e-8, 2.790e-7, 3.063e-7, 2.738e-8, 2.387e-7, 2.502e-7, 1.149e-8, 2.490e-7, 2.608e-7, 1.185e-8, 3.502e-7, 3.200e-7, -3.016e-8, 3.906e-7, 3.494e-7, -4.116e-8, 3.472e-7, 3.119e-7, -3.534e-8, 3.879e-7, 3.401e-7, -4.778e-8
0.048, 2.545e-7, 2.859e-7, 3.135e-8, 2.839e-7, 3.109e-7, 2.703e-8, 2.408e-7, 2.519e-7, 1.116e-8, 2.515e-7, 2.635e-7, 1.192e-8, 3.512e-7, 3.208e-7, -3.032e-8, 3.913e-7, 3.500e-7, -4.124e-8, 3.476e-7, 3.121e-7, -3.547e-8, 3.885e-7, 3.405e-7, -4.798e-8
0.044, 2.593e-7, 2.901e-7, 3.079e-8, 2.893e-7, 3.163e-7, 2.706e-8, 2.442e-7, 2.550e-7, 1.077e-8, 2.565e-7, 2.676e-7, 1.106e-8, 3.536e-7, 3.227e-7, -3.087e-8, 3.939e-7, 3.521e-7, -4.181e-8, 3.492e-7, 3.133e-7, -3.597e-8, 3.906e-7, 3.422e-7, -4.848e-8
0.040, 2.644e-7, 2.943e-7, 2.991e-8, 2.946e-7, 3.212e-7, 2.654e-8, 2.480e-7, 2.581e-7, 1.009e-8, 2.607e-7, 2.714e-7, 1.071e-8, 3.547e-7, 3.235e-7, -3.114e-8, 3.955e-7, 3.536e-7, -4.191e-8, 3.503e-7, 3.141e-7, -3.624e-8, 3.915e-7, 3.429e-7, -4.864e-8
0.036, 2.707e-7, 3.002e-7, 2.947e-8, 3.019e-7, 3.285e-7, 2.661e-8, 2.526e-7, 2.626e-7, 9.913e-9, 2.660e-7, 2.765e-7, 1.052e-8, 3.578e-7, 3.262e-7, -3.165e-8, 3.985e-7, 3.561e-7, -4.240e-8, 3.523e-7, 3.156e-7, -3.668e-8, 3.944e-7, 3.449e-7, -4.946e-8
0.032, 2.767e-7, 3.065e-7, 2.986e-8, 3.096e-7, 3.362e-7, 2.658e-8, 2.573e-7, 2.670e-7, 9.677e-9, 2.723e-7, 2.827e-7, 1.046e-8, 3.604e-7, 3.287e-7, -3.174e-8, 4.019e-7, 3.591e-7, -4.275e-8, 3.551e-7, 3.177e-7, -3.735e-8, 3.972e-7, 3.471e-7, -5.010e-8
0.028, 2.839e-7, 3.138e-7, 2.985e-8, 3.186e-7, 3.454e-7, 2.681e-8, 2.626e-7, 2.719e-7, 9.333e-9, 2.788e-7, 2.892e-7, 1.032e-8, 3.630e-7, 3.312e-7, -3.179e-8, 4.052e-7, 3.620e-7, -4.319e-8, 3.569e-7, 3.194e-7, -3.751e-8, 3.988e-7, 3.492e-7, -4.960e-8
0.024, 2.922e-7, 3.219e-7, 2.974e-8, 3.292e-7, 3.563e-7, 2.714e-8, 2.692e-7, 2.784e-7, 9.215e-9, 2.870e-7, 2.975e-7, 1.048e-8, 3.668e-7, 3.345e-7, -3.233e-8, 4.100e-7, 3.663e-7, -4.364e-8, 3.603e-7, 3.225e-7, -3.782e-8, 4.027e-7, 3.521e-7, -5.064e-8
0.020, 3.012e-7, 3.316e-7, 3.040e-8, 3.409e-7, 3.686e-7, 2.772e-8, 2.753e-7, 2.848e-7, 9.471e-9, 2.956e-7, 3.062e-7, 1.061e-8, 3.710e-7, 3.385e-7, -3.251e-8, 4.142e-7, 3.702e-7, -4.394e-8, 3.639e-7, 3.254e-7, -3.851e-8, 4.058e-7, 3.549e-7, -5.084e-8
0.016, 3.117e-7, 3.434e-7, 3.175e-8, 3.549e-7, 3.837e-7, 2.875e-8, 2.840e-7, 2.936e-7, 9.628e-9, 3.058e-7, 3.169e-7, 1.111e-8, 3.759e-7, 3.433e-7, -3.263e-8, 4.197e-7, 3.759e-7, -4.373e-8, 3.679e-7, 3.297e-7, -3.819e-8, 4.105e-7, 3.597e-7, -5.087e-8
0.012, 3.238e-7, 3.563e-7, 3.254e-8, 3.697e-7, 3.999e-7, 3.029e-8, 2.925e-7, 3.026e-7, 1.008e-8, 3.167e-7, 3.283e-7, 1.157e-8, 3.810e-7, 3.486e-7, -3.242e-8, 4.256e-7, 3.816e-7, -4.397e-8, 3.723e-7, 3.339e-7, -3.840e-8, 4.152e-7, 3.644e-7, -5.086e-8
0.008, 3.372e-7, 3.711e-7, 3.395e-8, 3.869e-7, 4.192e-7, 3.230e-8, 3.021e-7, 3.133e-7, 1.117e-8, 3.282e-7, 3.415e-7, 1.326e-8, 3.869e-7, 3.550e-7, -3.191e-8, 4.317e-7, 3.881e-7, -4.357e-8, 3.769e-7, 3.386e-7, -3.834e-8, 4.200e-7, 3.692e-7, -5.079e-8
0.004, 3.519e-7, 3.881e-7, 3.613e-8, 4.054e-7, 4.404e-7, 3.498e-8, 3.128e-7, 3.254e-7, 1.256e-8, 3.419e-7, 3.569e-7, 1.491e-8, 3.945e-7, 3.626e-7, -3.185e-8, 4.392e-7, 3.963e-7, -4.291e-8, 3.825e-7, 3.443e-7, -3.816e-8, 4.262e-7, 3.752e-7, -5.104e-8
0.000, 3.688e-7, 4.074e-7, 3.863e-8, 4.271e-7, 4.655e-7, 3.836e-8, 3.248e-7, 3.392e-7, 1.439e-8, 3.579e-7, 3.747e-7, 1.675e-8, 4.021e-7, 3.714e-7, -3.077e-8, 4.472e-7, 4.054e-7, -4.176e-8, 3.897e-7, 3.515e-7, -3.818e-8, 4.331e-7, 3.827e-7, -5.038e-8
